Time,Input1,Input1 (low),Input1 (high),Input2,Input2 (low),Input2 (high),Output,Output (low),Output (high),Signal,Signal (low),Signal (high)
0,10,10,10,10,10,10,0,0,0,0,0,0
0.5753240140222677,8.427967520271583,7.286513533716304,9.569421506826862,9.986095736395447,9.868351165090575,10.103840307700318,0.013124676631108253,-0.10128078739772732,0.12753014065994384,0.0007795869734484646,-0.02713910849822797,0.028698282445124897
1.191342728995076,7.044693309220907,5.625677745195385,8.463708873246429,9.944578824801097,9.710525557062326,10.178632092539868,0.04916097730207798,-0.17142293445564716,0.26974488905980315,0.006260197896826436,-0.07280713183296875,0.08532752762662163
1.8512718388995757,5.843404516531952,4.323036601111428,7.3637724319524756,9.876120836341597,9.528702219139955,10.22353945354324,0.10276476030185741,-0.2143749605356409,0.41990448113935575,0.02111440335654564,-0.12386025137368599,0.16608905808677726
2.5258639155972045,4.85717800556141,3.3265335551009185,6.387822456021902,9.786620007752461,9.334940187185884,10.238299828319038,0.16522966468972974,-0.23429377262211162,0.5647531020015711,0.04815032755780897,-0.17013973786801345,0.2664403929836314
3.200165745702156,4.066830570939908,2.571841318578314,5.561819823301502,9.682592714099219,9.137753574019312,10.227431854179125,0.22936207669972392,-0.238232105237476,0.6969562586369238,0.08804520920105588,-0.2058707440723271,0.3819611624744389
3.8539606888372826,3.4498787730047296,2.010418437647044,4.889339108362416,9.571746959376085,8.946335607620432,10.197158311131739,0.28933875089508376,-0.23261768832798035,0.8112951901181479,0.13891428972882885,-0.2282607454061284,0.5060893248637861
4.476534217509063,2.972418999426537,1.5938076386133824,4.351030360239691,9.459833740293734,8.765855345419663,10.153812135167804,0.34229145682215145,-0.22238242184262125,0.9069653354869242,0.19787480288411283,-0.2375873975969254,0.6333370033651511
5.144656678211891,2.556263261173889,1.2447033986368614,3.8678231237109166,9.335192467588465,8.57564717318657,10.094737761990359,0.3932800714523212,-0.20893267817950695,0.9954928210841494,0.27152746095920977,-0.23456882229828135,0.7776237442167009
5.86957740469871,2.1949184513944657,0.9534581255545986,3.436378777234333,9.196867285178588,8.374592110639782,10.019142459717393,0.4410261891072631,-0.19376430590327287,1.075816684117799,0.3621065257141466,-0.21668298591394652,0.9408960373422397
6.498319372521894,1.9422734100581462,0.7572440577632285,3.127302762353064,9.075746066952123,8.205378957386552,9.946113176517693,0.4759250988522492,-0.18137158368471284,1.1332217813892114,0.44832883419562475,-0.18974187946098153,1.086399547852231
7.174647272205041,1.7208471201264497,0.5909649121055087,2.8507293281473904,8.945417202355305,8.029129004506078,9.861705400204531,0.5069298166947709,-0.1695883801015975,1.1834480134911392,0.5476529809499197,-0.15003421112496684,1.2453401730248062
7.909842600711169,1.5274507098070231,0.45064528217446975,2.6042561374395765,8.804709858634173,7.844548218173738,9.764871499094607,0.5334664782330726,-0.1590345588055192,1.2259675152716643,0.6618236631327509,-0.09569290614159831,1.4193402324071
8.50998739370571,1.3988530100321488,0.3601878553435096,2.437518164720788,8.691169283862514,7.699324006840447,9.683014560884581,0.5500923132004744,-0.1522677551786693,1.252452381579618,0.7587384029370072,-0.04380444574285347,1.561281251616868
9.154096534085278,1.2843921487432648,0.2818080628061188,2.286976234680411,8.571042903696416,7.548853069466899,9.593232737925932,0.563437088146386,-0.14681336843263615,1.2736875447254081,0.865520008157195,0.01836324109091947,1.7126767752234704
9.849117612179894,1.18303679482803,0.21425529599170756,2.1518182936643524,8.443765210150556,7.392609257324721,9.49492116297639,0.5732320251655272,-0.14288080739104714,1.2893448577221016,0.9830027646839148,0.09184172760827713,1.8741638017595523
10.582722952165286,1.0959804673685043,0.15776870082336236,2.0341922339136462,8.31233534245687,7.234355674462385,9.390315010451353,0.5791071300602986,-0.14068671243763886,1.2989009725582359,1.1085575274828297,0.17535408740362868,2.0417609675620305
11.346265539845884,1.0225250613392856,0.11132773047298128,1.9337223922055897,8.178919121670592,7.0766058484921155,9.281232394849068,0.5811288097894867,-0.14022432544266084,1.302481945021634,1.2399520685399195,0.2674727401732413,2.212431396906598
12.138216212276209,0.9607975916667872,0.07325774891092218,1.8483374344226524,8.044298058109852,6.920116107302985,9.16848000891672,0.5796025196515925,-0.14135295266610026,1.3005579919692853,1.376099422238552,0.36733475866006726,2.384864085817037
12.957045806510783,0.9089969902411226,0.04205576899140262,1.7759382114908426,7.909178336591583,6.765523799590251,9.052832873592916,0.5749134665352529,-0.14387326499699427,1.2937001980675,1.5159081968731631,0.47397367275597513,2.557842720990351
13.823729147082618,0.8644196515300775,0.015809226597287118,1.7130300764628679,7.770648195403724,6.6093947724553646,8.931901618352082,0.5672656587017156,-0.1476614816346521,1.2821927990380835,1.6620861458945593,0.5893887572478353,2.7347835345412834
14.418240320526913,0.8386346626953869,0.00090830760961913,1.6763610177811548,7.67825049906148,6.506497106400978,8.850003891721983,0.5607772565145763,-0.15074758813833822,1.2723021011674909,1.7609722444239422,0.6695134098294013,2.852431079018483
15.029473773700946,0.8154021492981882,-0.012324919856271599,1.643129218452648,7.585439798863789,6.40407813567497,8.766801462052609,0.5532840118601975,-0.15421698854921828,1.2607850122696131,1.861276189276012,0.752337610971495,2.970214767580529
15.660460891277252,0.7943056452411958,-0.02417147115890983,1.6127827616413015,7.491904927315172,6.301765354084118,8.682044500546226,0.5448599030696728,-0.15802054776716068,1.2477403539065062,1.9632351696151535,0.8380216004636207,3.0884487387666866
16.31120167325583,0.7750878256716673,-0.03481101371213291,1.5849866650554676,7.397802663724789,6.1997056878426795,8.595899639606898,0.5356132468789281,-0.16209337028787885,1.233319864045735,2.0665840893962812,0.9263105433283334,3.206857635464229
16.984053836275095,0.7574468923057995,-0.04444062458045006,1.5593344091920491,7.302953416677758,6.097681966071114,8.508224867284401,0.5256184400841447,-0.16638613790021461,1.2176230180685041,2.1714281432380957,1.0172628134036519,3.32559347307254
17.679017380335036,0.7411816469518515,-0.05319440319180879,1.5355576970955118,7.2075224389483195,5.9958515006457,8.419193377250938,0.5149813321925714,-0.17083677689956966,1.2007994412847123,2.277496228859107,1.1106119263776761,3.4443805313405376
18.39999798334738,0.7260249038212726,-0.06123674064160345,1.5132865482841487,7.111151276943665,5.893815207194787,8.328487346692544,0.5037461941847167,-0.17540999046704975,1.182902378836483,2.385102528871616,1.2066069318591621,3.56359812588407
19.146995645312124,0.7118300953586857,-0.06866166024595954,1.492321850963331,7.014029703254647,5.791760759403315,8.23629864710598,0.49201434436207037,-0.18004784426829823,1.164076532992439,2.4939559523832804,1.3049638848694867,3.682948019897074
19.92400292993266,0.6983927853541033,-0.07559012858741809,1.4723756992956247,6.915840688368281,5.689344155647797,8.142337221088765,0.4798233081656356,-0.18471918619077227,1.1443658025220436,2.604336003466081,1.4059128754373953,3.802759131494767
20.73101983720899,0.6856070689123523,-0.08208759039600366,1.4533017282207084,6.816797751118601,5.586779316454376,8.046816185782825,0.46727088925755295,-0.1893705978236913,1.1239123763387973,2.715931359623843,1.509148545145939,3.9227141741017473
21.561838946820323,0.6734607837058427,-0.08817133459999948,1.435092902011685,6.7178321088236554,5.485010047442827,7.9506541702044835,0.4545461145961694,-0.1939200598528928,1.1030122890452316,2.827621776580173,1.613593821893401,4.041649731266945
22.416460258766662,0.6618503838705286,-0.09390302904789538,1.4176037967889528,6.619069313160358,5.384135306112204,7.854003320208512,0.4417314956667401,-0.19832979499315462,1.0817927863266348,2.9391991911728996,1.718998028761035,4.159400353584765
23.272176794317918,0.650966552726453,-0.09920039070247433,1.4011334961553803,6.523132479607088,5.286779114421927,7.759485844792248,0.42922788914839655,-0.20246279654820137,1.0609185748449945,3.047639631244514,1.8224093243241704,4.272869938164858
24.128988553474095,0.6406910217985531,-0.10413304544677571,1.3855150890438819,6.429903245184811,5.1927467878499405,7.667059702519681,0.41706941486501875,-0.2063166733761223,1.0404555031061598,3.1530273399501696,1.9237847996850481,4.382269880215291
25.00525731560375,0.630726454320492,-0.10885216964220612,1.3703050782831903,6.3373578948418094,5.099947500327199,7.57476828935642,0.4050299588639866,-0.20996819275361378,1.020028110481587,3.257612146294203,2.0252039659795518,4.490020326608854
25.900983080706887,0.6210283628161913,-0.11338342575338378,1.3554401513857663,6.24555597717864,5.008411688597332,7.482700265759948,0.3931480890733981,-0.21340618517169357,0.9997023633184898,3.3612959337479618,2.126519256722899,4.5960726107730245
26.80605371716976,0.6116625703311509,-0.1177013872744751,1.3410265279367768,6.155542207058799,4.919144704538216,7.391939709579382,0.381582365479742,-0.21658972436006663,0.9797544553195506,3.4628754274614577,2.2264921924521617,4.699258662470754
27.72046922499237,0.6025886452728137,-0.12182968753906243,1.32700697808469,6.067277329189395,4.832065861935147,7.302488796443642,0.3703439095230236,-0.2195236978842537,0.9602115169303009,3.562378761287581,2.325081564113246,4.799675958461916
28.65521021096072,0.5936711387251405,-0.12583376458240547,1.3131760420326866,5.9797090531864265,4.746106084088269,7.213312022284584,0.3593114972937875,-0.22224589500723818,0.9408688895948132,3.660979449519786,2.4233973862524625,4.89856151278711
29.610276675074815,0.5848956619399309,-0.12972199892335778,1.2995133228032196,5.892888567263156,4.661293839806746,7.124483294719566,0.34850291432119723,-0.22475527699564884,0.9217611056380433,3.758608518415646,2.5213328725978914,4.9958841642334
30.581302080018883,0.5762889227461649,-0.13348504227609304,1.286062887768423,5.8072418134851365,4.578021396449083,7.03646223052119,0.33797797998154855,-0.2270436094772601,0.9029995694403572,3.854780206533315,2.6183598954737337,5.091200517592897
31.568286425792934,0.5678390211898251,-0.13713014621510577,1.272808188594756,5.722776994956932,4.496271391951373,6.94928259796249,0.32774129322373635,-0.22911643069976473,0.8845990171472374,3.949481711819333,2.71442406827503,5.184539355363636
32.57827293425401,0.55947910689483,-0.14068798965451046,1.2596462034441704,5.638924099061067,4.415471817904741,6.862376380217393,0.31772604027543966,-0.2309931466714636,0.8664452272223429,4.043349860663493,2.81013697239361,5.276562748933375
33.61126160540211,0.5512075754101069,-0.14415990653234123,1.2465750573525551,5.555738769609966,4.335660316173642,6.77581722304629,0.3079414089315233,-0.2326760358727012,0.8485588537357478,4.13631982145851,2.9054054389641166,5.367234203952904
34.65062950707934,0.5431505040800378,-0.14749524779615852,1.2337962559562343,5.474550574655115,4.25808910378339,6.691012045526841,0.2985404461379227,-0.2341473357541632,0.8312282280300085,4.226908979206962,2.9986729258856877,5.455145032528236
35.69637663928569,0.5352962971920686,-0.15070147241993603,1.2212940668040733,5.3952907540903565,4.182663053594369,6.607918454586344,0.2895079248894962,-0.23542072181821733,0.8144365715972097,4.315201321020147,3.0899819717350794,5.540420670305215
36.75809710329544,0.5275660570918029,-0.1538132010484098,1.2089453152320155,5.317198420149148,4.108634947147547,6.525761893150748,0.2807505316895833,-0.23651898457614795,0.7980200479553146,4.402051048161269,3.18018060268314,5.623921493639398
37.835790899108616,0.519957211334269,-0.1568325988838406,1.1967470215523786,5.240271910410947,4.0359854335274745,6.44455838729442,0.27226367053635103,-0.23744961723251612,0.7819769583052182,4.487464419052702,3.2692483335264186,5.705680504578986
38.922218462239485,0.5125164244850555,-0.15974321649793866,1.1847760654680497,5.165002309702425,3.965158908179789,6.364845711225061,0.2640945509843036,-0.23821620835051477,0.766405310319122,4.570903139313272,3.3565946615019673,5.7852116171245775
40.01737979268807,0.5052375987003097,-0.1625492699652924,1.1730244673659118,5.091341903924465,3.896089866143125,6.286593941705805,0.256230312211299,-0.23882915203160504,0.751289776454203,4.652427783864237,3.4422533200110585,5.862602247717415
41.12628972075055,0.4980832696956501,-0.1652672310807235,1.1614337704720237,5.018921990108904,3.828415040834289,6.209428939383519,0.24862406786213226,-0.23930068896974055,0.7365488246940051,4.732453942028964,3.526635206170119,5.9382726778878085
42.248948246426934,0.49105110633849897,-0.16789910139476522,1.150001314071763,4.947726103041049,3.7621041601939478,6.13334804588815,0.24126823999119312,-0.23963820208517495,0.7221746820675612,4.811005656967758,3.60974426422562,6.012267049709896
43.38185510340364,0.48415989583764746,-0.1704396868623212,1.138759478537616,4.87794995747627,3.697324522168385,6.058575392784155,0.2341759214813778,-0.2398489239363932,0.7082007668991488,4.887874121042353,3.691337887178393,6.084410354906313
44.52501029168066,0.47740578513090653,-0.17289179181793185,1.127703362079745,4.809558293194758,3.6340283926901975,5.985088193699319,0.2273367906915607,-0.23994071528400768,0.6946142966671291,4.963104916113682,3.771443571914411,6.154766260312954
45.68674188559447,0.4707379962715999,-0.17527536942694627,1.1167513619701461,4.742039780680729,3.571730534110528,5.91234902725093,0.22069359125997276,-0.239921001908964,0.6813081844289095,5.0372666280593,3.850649470287113,6.223883785831488
46.86704988514509,0.46415707113688237,-0.17759072392208403,1.1059048661958488,4.675401778063902,3.51042832744828,5.840375228679524,0.21424295495203796,-0.239794578715143,0.668280488619219,5.110355266984062,3.928937985726658,6.2917725482414655
47.457203884920396,0.4609370535424706,-0.17871007997461041,1.1005841870595516,4.642796928001649,3.480499936211274,5.805093919792023,0.21112484845477184,-0.2396943408729664,0.6619440377825101,5.146078223543582,3.9672840268289593,6.324872420258204
48.06458348627544,0.45767064681597924,-0.17983636494144195,1.0951776585734003,4.6097231086544515,3.4501849163481144,5.769261300960789,0.20798745273731076,-0.23956700806325157,0.6555419135378731,5.18228943860824,4.006208401622612,6.358370475593869
48.67196308763048,0.454451456043504,-0.18093715461000315,1.0898400666970112,4.577128235883177,3.420351891122122,5.733904580644232,0.20492067265005326,-0.23941628256247766,0.6492576278625841,5.217951091466772,4.044595092215646,6.391307090717898
49.27934268898552,0.4512784388154902,-0.18201301175655488,1.0845698893875353,4.545001808149819,3.390989193787474,5.699014422512164,0.20192251991540128,-0.23924320944561678,0.6430882492764194,5.2530756719347815,4.082454895631088,6.423696448238475
49.886722290340565,0.4481505800671059,-0.18306486514313697,1.0793660252773487,4.513333658094458,3.3620855758759927,5.664581740312924,0.1989906163762027,-0.23904907579366186,0.6370303085460672,5.287675725529341,4.119798582997487,6.455552868061194
50.5142929418246,0.44496513837129165,-0.18412704098819316,1.0740573177307764,4.481083643102635,3.332691759054484,5.629475527150786,0.19602892042329634,-0.23882737150587663,0.6308852123524693,5.322887436474071,4.157852417246859,6.487922455701282
51.14186359330864,0.44182581513635194,-0.1851647504521035,1.0688163807248074,4.4493017307265905,3.3037647748372145,5.594838686615967,0.19313398376697094,-0.23858521695906754,0.6248531844930094,5.357564285506441,4.195377267924003,6.519751303088879
51.76943424479268,0.4387315951334664,-0.18617852066696672,1.0636417109338994,4.417977637912933,3.27529336602095,5.5606619098049155,0.19030393463513026,-0.23832355504685968,0.6189314243171202,5.391718427451939,4.232383882015606,6.551052972888272
52.39700489627671,0.4356814894759765,-0.18716928002747124,1.0585322589794242,4.387101411900078,3.2472666799512537,5.526936143848902,0.18753648262317385,-0.23804356787257264,0.6131165331189203,5.425362105476749,4.268883003391133,6.5818412075623645
53.04411233024444,0.43258161746603013,-0.18816732099867745,1.0533305559307378,4.355722732616358,3.218822065145015,5.492623400087701,0.18474663561678606,-0.2377365794266118,0.6072298506601839,5.459530631766857,4.305997697521019,6.613063566012694
53.691219764212164,0.42952661852675184,-0.18914198378569352,1.0481952208391971,4.324799636405263,3.190827936370682,5.4587713364398445,0.18201962639342004,-0.23741193144343734,0.6014511842302774,5.4931807372013175,4.342594576945658,6.643766897456977
54.33832719817989,0.4265155076668063,-0.19009375862287786,1.0431247739564904,4.2943221165090515,3.163273487961143,5.42537074505696,0.17935370723683822,-0.23707046776120969,0.5957778822348861,5.5263241762541115,4.37868424432141,6.673964108186813
54.985434632147616,0.4235473251883817,-0.19102357008222326,1.0381182204589865,4.264280490070315,3.136148303099233,5.392412677041397,0.17674668667911983,-0.23671326418746066,0.5902066375457004,5.558972823250566,4.414277324024436,6.703668322476696
55.65372633012748,0.4205260496379265,-0.19196127111728156,1.0330133703931346,4.233702924422422,3.1085749677369274,5.358830881107917,0.17411446638980246,-0.2363286606463155,0.5845575934259204,5.592182609187777,4.450525005732329,6.733840212643225
56.32201802810735,0.41754857933323736,-0.19287656879915188,1.0279737274656267,4.20357013138475,3.081437904530628,5.325702358238873,0.17154157606418022,-0.23592890775379452,0.579012059882155,5.624888292551071,4.486264586887863,6.763511998214279
56.99030972608721,0.4146139528718848,-0.19376991889632683,1.0229978246400964,4.17387232739252,3.0547266829123707,5.293017971872668,0.16902637971878776,-0.23551476220887407,0.5735675216464495,5.657101292888694,4.5215065535303705,6.792696032247017
57.65860142406708,0.4117212333177447,-0.19464225179820083,1.0180847184336903,4.144600048799766,3.0284312493332064,5.260768848266325,0.16656676711504625,-0.2350872063696387,0.5682207405997313,5.688833184085191,4.556261441476217,6.821404926694166
58.34783184336901,0.4087808189088144,-0.19552037286840168,1.0130820106860305,4.114846598218298,3.0017371325736755,5.227956063862921,0.16408675196861175,-0.2346329387558612,0.5628064426930847,5.7210666498130935,4.591605529962888,6.850527769663299
59.037062262670936,0.40588305181407336,-0.19637709223498812,1.0081431958631348,4.085526145443873,2.9754645193889617,5.195587771498784,0.16166259931505372,-0.23416586975865555,0.5574910683887631,5.752811255241077,4.626452742011114,6.879169768471039
59.726292681972865,0.4030269968515836,-0.19721283012334667,1.0032668238265139,4.0566291646451145,2.9496033744835466,5.163654954806683,0.15929278604486533,-0.23368667384182903,0.5522722459315597,5.784078049310024,4.660813387317258,6.907342711302789
60.41552310127479,0.4002117423919303,-0.19802852109900698,0.9984520058828676,4.028146444421235,2.9241440267981385,5.132148862044332,0.15697528665479102,-0.23319624115726886,0.5471468144668509,5.814878268923979,4.6946978547631115,6.935058683084847
61.11877920274342,0.3973803385299199,-0.1988405736745668,0.9936012507344065,3.999501785887647,2.898570977611116,5.100432594164178,0.15466313081569508,-0.23268488577216048,0.5420111474035506,5.845835083296664,4.728791141544177,6.962879025049151
61.822035304212044,0.3945895870889133,-0.1996326188857131,0.9888117930635396,3.9712698280883294,2.8733967987323865,5.069142857444272,0.15240247879595145,-0.23216310007831412,0.536968057670217,5.876327693115725,4.762408956333302,6.990246429898147
62.52529140568067,0.3918386063127739,-0.2004050345435,0.9840822471690478,3.943441584931771,2.848612128201054,5.0382710416624885,0.15019195404933633,-0.23163146752104108,0.5320153756197137,5.906366461018899,4.795561107818672,7.017171814219125
