Time,Input1,Input1 (low),Input1 (high),Input2,Input2 (low),Input2 (high),Output,Output (low),Output (high),Signal,Signal (low),Signal (high)
0,10,10,10,10,10,10,0,0,0,0,0,0
0.5873885371301398,8.39808424435499,7.247092526772991,9.549075961936989,9.985534361896843,9.865433199624292,10.105635524169394,0.013637928264592578,-0.10298615274777718,0.13026200927696235,0.0008277098385735557,-0.027939790048881828,0.029595209726028943
1.1805338663416107,7.066577660996769,5.648103600288847,8.485051721704691,9.945554221338638,9.713472000973212,10.177636441704063,0.04834772938260225,-0.1704845449462471,0.2671800037114516,0.006098049278755944,-0.07194318755173683,0.08413928610924871
1.8026341061694084,5.923190058019765,4.402745168392222,7.443634947647308,9.881993765552126,9.542468150607082,10.22151938049717,0.09837597904964308,-0.2122367400596119,0.40898869815889805,0.019630255398228432,-0.12019714659542444,0.1594576573918813
2.43053413028302,4.983422521728862,3.4459697953598645,6.520875248097859,9.80046195305621,9.362534958716678,10.238388947395743,0.15602113461925032,-0.23292771864084583,0.5449699878793465,0.043516912324546735,-0.16416763384035826,0.25120145848945175
3.0500452299637355,4.227663843996768,2.716756743854991,5.738570944138545,9.707061641222197,9.181400398187053,10.23272288425734,0.214965527891753,-0.23893666217609305,0.668867717959599,0.07797283088604741,-0.19905930621414275,0.35500496798623754
3.6765950998391723,3.6039949430590648,2.142278449214241,5.0657114369038885,9.602916115166778,8.99731689034406,10.208515339989496,0.27322523279688515,-0.23558819398850062,0.7820386595822709,0.12385865203632704,-0.22368131554708018,0.4713986196197343
4.274477392109696,3.1163385603278684,1.7113338234713766,4.521343297184361,9.496986617452245,8.822701509633113,10.171271725271378,0.32546805755915464,-0.22705317862602792,0.8779892937443372,0.177545324988604,-0.23629871910045588,0.5913893690776639
4.873322627906242,2.713824351082325,1.3687955056598853,4.0588531965047645,9.386439767457142,8.65015588024776,10.122723654666524,0.3732812212054966,-0.21572903082691247,0.9622914732379058,0.2402790113373641,-0.23810863931303453,0.7186666619877627
5.4738420504255,2.3809411637425217,1.095467966040712,3.6664143614443314,9.272667398125943,8.480428491111683,10.064906305140203,0.41603250638242695,-0.2032967546618133,1.035361767426667,0.3113000954916274,-0.22930502328822988,0.8519052142714847
6.136241654107479,2.080652577429503,0.8575599348518095,3.3037452200071966,9.145259717498247,8.297819386289309,9.992700048707185,0.4568508422430695,-0.1897267838500588,1.103428468336198,0.3978894402586843,-0.20792638781466083,1.0037052683320293
6.785960745560347,1.8413078338768358,0.674559730930816,3.0080559368228554,9.019548222041925,8.123923737593927,9.915172706489923,0.4904720527327684,-0.17748921316028643,1.158433318625823,0.4899797252253024,-0.17599079351366165,1.1559502439642664
7.400483675778945,1.655585355473065,0.5371234700078651,2.7740472409382653,8.900823792829426,7.964482182913812,9.83716540274504,0.5166855008190822,-0.16738378299440748,1.2007547846325717,0.582490706351494,-0.1367530354787253,1.3017344481817132
8.064906959823789,1.4907485788547683,0.4188939425886371,2.5626032151208995,8.773361676793515,7.797738879233418,9.748984474353612,0.5393542381188832,-0.15831873786407435,1.2370272141018406,0.6872840850876137,-0.08555157545581005,1.4601197456310375
8.673258534301004,1.3664618345163482,0.3323498112772232,2.4005738577554734,8.657955176572386,7.650229620797277,9.665680732347496,0.5554024404190987,-0.1517714477126032,1.2625763285508005,0.7866423830085145,-0.031650576718577406,1.6049353427356063
9.353090059929071,1.251906441564167,0.25478334010025416,2.2490295430280796,8.530869018442596,7.491159487805625,9.570578549079567,0.5685877636962416,-0.14637315188316935,1.2835486792756527,0.9005432178611662,0.035423306955341016,1.7656631287669913
10.075062145218645,1.1528529014127031,0.18959846242487044,2.1161073404005357,8.398426346476764,7.328741709351407,9.468110983602122,0.5777880825594353,-0.14268264347356585,1.2982588085924363,1.0237855709637973,0.11333267938465985,1.9342384625429347
10.70654412360383,1.0815163403633137,0.14384822932166408,2.0191844514049633,8.28491774893649,7.1920040131268,9.37783148474618,0.5823415004377176,-0.14098605399851394,1.3056690548739491,1.1327407506257923,0.18615317685297061,2.079328324398614
11.401812637980129,1.0162066898278108,0.10292641551584525,1.9294869641397763,8.162605633893309,7.046977218649992,9.278234049136625,0.5841521117923802,-0.14054041008588203,1.3088446336706425,1.2532422543143145,0.2704307511088784,2.2360537575197506
12.154948150986879,0.9579845114348087,0.06729443389489154,1.8486745889747258,8.033358688745738,6.896124201059143,9.170593176432332,0.58294390024619,-0.14146321401437767,1.3073510145067577,1.3836974110080777,0.3655651464699574,2.401829675546198
12.751808028152727,0.9192744103610072,0.0440868135797734,1.794462007142241,7.933359059986133,6.780971550463633,9.085746569508633,0.5800466718295009,-0.1430425681770906,1.3031359118360923,1.4865942681843711,0.4431510416867357,2.5300374946820066
13.387260125369549,0.8839081410367502,0.023249861848391173,1.7445664202251092,7.8292557023757885,6.662445825334672,8.996065579416905,0.5754111003284177,-0.14538429058438074,1.2962064912412161,1.5953331972957934,0.5273504122961696,2.6633159822954173
14.077789351351877,0.8510639291108254,0.004237088649186482,1.6978907695724643,7.718870154759301,6.538184362816115,8.899555946702487,0.5688902253137947,-0.14853591691792112,1.2863163675455107,1.7122396199269054,0.6201906417042837,2.804288598149527
14.820240723195187,0.8209863473545004,-0.012863209281761878,1.6548359039907625,7.603321817882297,6.4095796807320875,8.797063955032506,0.5605119533718985,-0.15245000241021467,1.2734739091540117,1.836166228745807,0.7210068980511757,2.951325559440438
15.60495719563622,0.7938932662767444,-0.02799034383060639,1.6157768763840952,7.484652772782306,6.278971999076583,8.69033354648803,0.5504820359276746,-0.1569952345522847,1.257959306407634,1.9648651912900235,0.8281057090567385,3.1016246735233084
16.42228172341172,0.7697209219907717,-0.041244904088144296,1.5806867480696876,7.364725142816507,6.14840416950702,8.581046116125993,0.539102318295917,-0.16200129185487733,1.2402059284467115,2.096172538887581,0.9396938635240522,3.2526512142511095
17.280480802411994,0.7478185976810797,-0.0530398746671793,1.5486770700293389,7.242700388394441,6.016939681154351,8.468461095634531,0.5264576996667427,-0.16739655083220473,1.2203119501656903,2.230841911938817,1.0563844394789181,3.4052993843987163
17.876172690448673,0.7342921242534884,-0.06021403584697027,1.5287982843539472,7.160272736144347,5.928887732753896,8.391657739534798,0.5174105003858965,-0.1711550609732463,1.2059760617450395,2.3223167634697592,1.1368575783196242,3.5077759486198943
18.495423747188518,0.7214247826416934,-0.06695616688700745,1.5098057321703942,7.076496315406707,5.83999002751184,8.313002603301573,0.5078666080717198,-0.17503048989718195,1.1907637060406215,2.415637076521579,1.2199064962301573,3.611367656813001
19.143992103756485,0.7090450665803016,-0.0733625485792484,1.4914526817398517,6.99078106939854,5.749633410447566,8.231928728349516,0.4977964891680064,-0.17902130576285818,1.174614284098871,2.511422441433455,1.3061010128734751,3.716743869993435
19.821877760152574,0.6971123678792783,-0.0794604141319123,1.473685149890469,6.903338734472622,5.658057491102281,8.148619977842962,0.48726224335342583,-0.18308835776047672,1.1576128444673284,2.609399022173951,1.395218398911884,3.823579645436018
20.520642745212477,0.6857131443590949,-0.08521158987587829,1.4566378785940681,6.815424520980632,5.566577988486897,8.064271053474366,0.4764596959775946,-0.1871442946570107,1.1400636866121998,2.708115783041773,1.4859361115442042,3.930295454539342
21.240287058936197,0.6747750328495292,-0.09066024032694775,1.4402103060260063,6.727158965383788,5.475307812957843,7.979010117809733,0.4654509110331958,-0.19115697978376334,1.122058801850155,2.807390123583009,1.5780625276485305,4.036717719517488
21.987863348647153,0.664134931691734,-0.09589252885411748,1.4241623922375855,6.637824900421173,5.383499426499153,7.892150374343194,0.454189637983861,-0.1951339576552753,1.1035132336229974,2.9079854615949667,1.672290584287712,4.143680338902222
22.763371614345356,0.6537530856157447,-0.10093208915315555,1.408438260384645,6.5475969677601285,5.291331543763791,7.803862391756466,0.4427371929054627,-0.19904345165819953,1.084517837469125,3.0096658393344073,1.7683923582832688,4.250939320385546
23.55340242938205,0.6437572663725734,-0.10572147253396702,1.3932360052791137,6.458140323398924,5.20048825712858,7.715792389669268,0.4313436776039304,-0.20279491933034716,1.065482274538208,3.1105159989971485,1.864524559175684,4.356507438818613
24.357955793757235,0.6340913437484862,-0.11029350731967758,1.37847619481665,6.369491968552568,5.11097601049617,7.628007926608966,0.4200482429538291,-0.20637490987003443,1.0464713957776925,3.210459788493595,1.960561034497844,4.460358542489346
25.19568322641203,0.6244996584968479,-0.11477186931579553,1.3637711863094912,6.279713596794574,5.0208245905135165,7.538602603075631,0.4086340707929889,-0.20984806398947947,1.0271162055754572,3.3116523324124394,2.058545475903106,4.564759188921773
26.066584727346427,0.6149715331416794,-0.11916228707812304,1.3491053533614819,6.1889995324562594,4.930230759479262,7.447768305433257,0.3971534536452401,-0.21319058791641604,1.0074974952068962,3.4138470138985038,2.158234626222783,4.669459401574224
26.97156436497813,0.6054883227678767,-0.12347358538494846,1.3344502309207018,6.097445866810178,4.83929032629261,7.355601407327746,0.3856443084395774,-0.21638485320341916,0.987673470082574,3.5169098247502375,2.2594895245291435,4.774330124971332
27.910622139307126,0.5960449614442788,-0.12770834540556197,1.3197982682941194,6.005238354519168,4.748184931886655,7.262291777151681,0.37415281085724295,-0.21941248592402884,0.9677181076385147,3.620608834623586,2.362070848642773,4.879146820604399
28.88423421903295,0.5866333996605342,-0.13187009646425707,1.3051368957853255,5.912509056157332,4.657040641852664,7.1679774704620005,0.3627157821270213,-0.22225963538729404,0.9476911996413366,3.7247751617156446,2.465797060315937,4.983753263115352
29.892400604155604,0.5772534540493623,-0.13595890899292384,1.2904658170916485,5.819429639308568,4.566019026882587,7.07284025173455,0.3513714712388186,-0.22491377625222675,0.927656718729864,3.829198889452615,2.5704415905414377,5.087956188363792
30.928293974290334,0.5679663739675254,-0.13994843953812408,1.2758811874731748,5.726763229786965,4.475853599803316,6.977672859770613,0.34022577686163147,-0.22735020881051826,0.9078017625337812,3.933010993351406,2.675107812590636,5.1909141741121765
31.991914329437144,0.5587691208580358,-0.14384098323783445,1.261379224953906,5.634605087106121,4.38661799525082,6.882592178961422,0.3292982496001832,-0.2295674538820222,0.8881639530823886,4.0360966632937,2.779646417602917,5.292546908984482
33.0931337605092,0.5495792539267812,-0.14767143914308145,1.2468299469966437,5.542228220268757,4.2975955276257665,6.786860912911747,0.3185105001302881,-0.23158280830513184,0.868603808565708,4.139261279600958,2.884849422973716,5.3936731362282
34.23195226750649,0.5404055244052444,-0.151435485308417,1.2322465341189057,5.449792694724071,4.20893124662219,6.690654142825951,0.3078886081438007,-0.23339141773613703,0.8491686340237384,4.242318697132128,2.9905079987517276,5.4941293955125285
35.39780751572071,0.5313375681154769,-0.15509648953112487,1.2177716257620788,5.358263611510139,4.121535891396541,6.594991331623738,0.29754639470215943,-0.23497736201461067,0.8300701514189295,4.344189993787705,3.0954892856606904,5.592890701914719
36.59069950515183,0.5223764850737637,-0.15865507141921442,1.2034080415667416,5.267699129747008,4.035443193823824,6.499955065670192,0.28748890739680755,-0.23634645943045696,0.811324274224072,4.444811962856181,3.199693088130276,5.689930837582086
37.1871454998674,0.5180100492459292,-0.1603673548371919,1.1963874533290504,5.223539432991432,3.993599342113801,6.4534795238690625,0.28264914987396117,-0.23694207789732702,0.8022403776452494,4.49381141713461,3.2506163432489465,5.737006491020274
37.8325012702925,0.5133678236813035,-0.16217200202129967,1.1889076493839066,5.176573058927439,3.9491918302443456,6.403954287610533,0.27754846268620254,-0.2375239721736901,0.7926208975460951,4.545878478386357,3.3048540192103317,5.786902937562383
38.477857040717595,0.5088085431861589,-0.16392840946102272,1.1815454958333405,5.130431334360087,3.9056591633410758,6.355203505379098,0.27258443923565906,-0.23804402906973027,0.7832129075410483,4.596984226404261,3.3582151884208873,5.835753264387634
39.123212811142686,0.5043297472534218,-0.16563822216061397,1.1742977166674575,5.085092539918269,3.862974767942435,6.307210311894103,0.26775246785720913,-0.2385053671176604,0.7740103028320786,4.6471549922245226,3.410718719700841,5.883591264748205
39.768568581567784,0.49992904913806113,-0.16730300050847535,1.1671610987845975,5.0405356447747165,3.821113676204707,6.259957613344726,0.2630481153754865,-0.2389109213866188,0.7650071521375919,4.696416239849802,3.4623838906129856,5.93044858908662
40.452124095804336,0.4953506081829023,-0.16901884693004715,1.1597200632958518,4.994171582727538,3.7776452439620307,6.210697921493045,0.25819968831569245,-0.23928278589942542,0.7556821625308103,4.747628728956776,3.516212771496394,5.979044686417157
41.13567961004088,0.4908548361666988,-0.17068748961190328,1.1523971619453008,4.94863885801337,3.7350451415056902,6.162232574521049,0.25348468408426617,-0.23959840016239797,0.7465677683309303,4.797876457902369,3.569142317784027,6.026610598020711
41.81923512427743,0.4864393691631536,-0.1723105106690897,1.145189248995397,4.903915112506013,3.693286735089629,6.114543489922397,0.24889836757465336,-0.23986076398269032,0.7376574991319971,4.847186519919335,3.621193124605801,6.073179915232869
42.50279063851398,0.4821019140591606,-0.17388941526426804,1.1380932433825892,4.859978709237346,3.6523450368940766,6.0676123815806156,0.24443619483762472,-0.24007268166452142,0.7289450713397708,4.895585095925033,3.672386168564568,6.118784023285498
43.21471329078312,0.4776650898707747,-0.1754884899110737,1.1308186696526232,4.815033631980386,3.6105459468675836,6.019521317093188,0.23991611744226676,-0.24024267248581954,0.7200749073703531,4.945050250577349,3.7248125478652194,6.165287953289479
43.92663594305226,0.47330823693799756,-0.17704281519509962,1.1236592890710948,4.770897416083853,3.5695796082867943,5.972215223880912,0.23552123462492358,-0.24036373275914452,0.7114062020089917,4.993581349291224,3.7763511405404673,6.210811558041981
44.638558595321406,0.4690291316758358,-0.17855386815475038,1.1166121315064221,4.7275482269959985,3.52942064327698,5.925675810715017,0.23124701354370908,-0.24043857098918608,0.7029325980766042,5.041204759460296,3.827022977155372,6.25538654176522
45.81446551691685,0.4621257646704225,-0.1809586897678584,1.1052102191087034,4.657614536177455,3.464793360200812,5.850435712154098,0.2244398798818253,-0.2404676495401621,0.6893474093038127,5.1179455839407275,3.908877098411865,6.32701406946959
46.551817994838515,0.4578981503645414,-0.18241105797285628,1.0982073587019392,4.614788096060542,3.4253126100566593,5.804263582064424,0.22032507901869186,-0.2404298724297021,0.6810800304670859,5.164886824920773,3.9590664786528214,6.370707171188724
47.37192262062462,0.4532845389154096,-0.1839781417992548,1.090547219630074,4.568052740786252,3.3823109434609435,5.75379453811156,0.2158812844794755,-0.24034069670293465,0.6721032656618856,5.216065974734277,4.013890067544414,6.41824188192414
48.26348176739331,0.4483714760042266,-0.1856261438057823,1.0823690958142356,4.518285904198796,3.3366140453623037,5.69995776303529,0.2112026261358739,-0.24019095182307262,0.6625962040948205,5.270511469665334,4.072329454893276,6.4686934844373924
49.155040914161994,0.4435618639750437,-0.18721838483393594,1.0743421127840234,4.469569280740041,3.2919746769959386,5.647163884484144,0.20667595626904453,-0.23998988031832927,0.6533417928564184,5.323754762990918,4.129593771384403,6.517915754597432
50.16624875609857,0.43822783977095725,-0.18895951029156588,1.0654151898334803,4.415543945726685,3.242577881799362,5.588510009654009,0.2017175240840175,-0.23970415139399565,0.6431391995620306,5.382738530189303,4.193163902422699,6.572313157955906
51.17745659803514,0.43301807631439676,-0.19063459382475872,1.0566707464535523,4.362780632162496,3.194442701660793,5.531118562664198,0.19693725324477787,-0.23936170387721425,0.63323621036677,5.4402821145927325,4.255314018573217,6.625250210612248
51.88268272158703,0.4294559563155962,-0.19176521507952626,1.0506771277107188,4.326706400249025,3.161593563140878,5.491819237357172,0.19370437766565507,-0.23909167155524702,0.6265004268865572,5.479589222085329,4.297842142646687,6.661336301523971
52.58790884513892,0.42595072928027944,-0.19286597957598994,1.0447674381365488,4.291210105721802,3.129318645726686,5.453101565716919,0.190551306346689,-0.23879761147521977,0.6199002241685978,5.518238587931513,4.33971704861605,6.696760127246975
53.39151082409778,0.42202414138912925,-0.19408501037270987,1.0381332931509684,4.2514490003867556,3.0932221582569155,5.409675842516595,0.18705234373473437,-0.23843493485071768,0.6125396223201864,5.561498655878515,4.386655716300201,6.73634159545683
54.226095279182424,0.41802038058069313,-0.19531252451284098,1.0313532856742271,4.210908885314441,3.056479295331921,5.365338475296961,0.1835206125986162,-0.23802906440968521,0.6050702896069177,5.605570502086953,4.434548867211515,6.77659213696239
54.792812407947444,0.4153437064378133,-0.19612435436392178,1.0268117672395485,4.183807620695679,3.0319506157236344,5.335664625667723,0.18117975336902897,-0.23773748091830427,0.6000969876563622,5.635012625935298,4.466584997118209,6.8034402547523865
55.58092141648801,0.4116765286481895,-0.19722501064714193,1.020578067943521,4.1466794287334565,2.9983909965653472,5.294967860901566,0.17799895776933944,-0.23731174628910517,0.593309661827784,5.675321613497205,4.510498637819355,6.840144589175056
56.36903042502858,0.4080720107772655,-0.19829366117093628,1.0144376827254673,4.110187822805409,2.9654563550016797,5.2549192906091395,0.1749020983369138,-0.23686380308174484,0.5866679997555725,5.714910078857683,4.553686884688279,6.8761332730270865
57.25470732621548,0.4040940277349242,-0.19945765959739692,1.0076457150672453,4.069917887287005,2.9291684848216146,5.210667289752395,0.17151836240431245,-0.23633563918073247,0.5793723639893573,5.75856375030869,4.601378046140659,6.915749454476722
58.14038422740238,0.4001909390330333,-0.2005838652032586,1.0009657432693253,4.030408806403512,2.8936239241699715,5.167193688637053,0.1682329348674974,-0.2357830643650884,0.5722489341000832,5.801358258728992,4.648199489385334,6.954517028072649
58.843955664228574,0.3971423385645583,-0.20145244247507943,0.995737119604196,3.999551180857255,2.865902292931706,5.133200068782804,0.16569057205502824,-0.2353278737587985,0.566709017868855,5.834758247087722,4.684789567439566,6.984726926735878
59.547527101054776,0.3941386332731058,-0.20229862432279727,0.9905758908690088,3.9691496213836346,2.8386242377247015,5.099675005042568,0.16320603154569632,-0.2348592143838252,0.5612712774752179,5.867644347070676,4.720856909867447,7.014431784273905
60.4100945660449,0.3905159385315498,-0.20330636147401387,0.9843382385371136,3.932485250770213,2.8057713998833167,5.059199101657109,0.16023636096134233,-0.23426741860082997,0.5547401405235146,5.907278388268453,4.764377800267415,7.050178976269491
61.29616957778606,0.3868613546066785,-0.2043085961212373,0.9780313053345943,3.895500609778508,2.772680827604037,5.018320391952979,0.15727027134577942,-0.2336410838529685,0.5481816265445274,5.947229118875722,4.808304661902691,7.086153575848753
