Time,Input1,Input1 (low),Input1 (high),Input2,Input2 (low),Input2 (high),Output,Output (low),Output (high),Signal,Signal (low),Signal (high)
0,10,10,10,10,10,10,0,0,0,0,0,0
0.5753240140222677,8.427967520271583,7.286513533716304,9.569421506826862,9.986095736395447,9.868351165090575,10.103840307700318,0.013124676631108253,-0.10128078739772732,0.12753014065994384,0.0007795869734484646,-0.02713910849822797,0.028698282445124897
1.191342728995076,7.044693309220907,5.625677745195385,8.463708873246429,9.944578824801097,9.710525557062326,10.178632092539868,0.04916097730207798,-0.17142293445564716,0.26974488905980315,0.006260197896826436,-0.07280713183296875,0.08532752762662163
1.8512718389022726,5.843404516527556,4.323036601106848,7.363772431948265,9.876120836341274,9.528702219139191,10.223539453543356,0.10276476030209646,-0.21437496053576277,0.4199044811399557,0.02111440335662878,-0.12386025137388693,0.1660890580871445
2.5258639156132805,4.857178005540411,3.32653355508035,6.387822456000472,9.786620007750134,9.334940187181207,10.238299828319061,0.1652296646912582,-0.23429377262236742,0.5647531020048838,0.04815032755860547,-0.17013973786900363,0.2664403929862146
3.2001657457226864,4.066830570918398,2.5718413185583087,5.561819823278488,9.682592714095874,9.137753574013292,10.227431854178455,0.22936207670165698,-0.23823210523741983,0.6969562586407339,0.0880452092024673,-0.2058707440732269,0.3819611624781615
3.8539606888528577,3.4498787729915383,2.010418437635312,4.889339108347764,9.571746959373353,8.946335607615888,10.197158311130819,0.2893387508964658,-0.23261768832777113,0.8112951901207028,0.13891428973017897,-0.2282607454065094,0.5060893248668673
4.476534217538953,2.9724189994058436,1.593807638595687,4.351030360216001,9.459833740288248,8.765855345411065,10.153812135165431,0.34229145682457457,-0.2223824218420593,0.9069653354912084,0.19787480288717613,-0.2375873975970898,0.633337003371442
5.144656678258739,2.556263261147728,1.244703398615358,3.8678231236800977,9.335192467579608,8.575647173173389,10.094737761985828,0.39328007145566596,-0.2089326781785254,0.9954928210898573,0.2715274609647222,-0.23456882229760706,0.7776237442270515
5.86957740474409,2.194918451374356,0.9534581255387258,3.4363787772099865,9.196867285169867,8.374592110627388,10.019142459712347,0.4410261891099991,-0.19376430590234145,1.0758166841223396,0.3621065257201289,-0.21668298591237323,0.940896037352631
6.498319372592369,1.9422734100325432,0.7572440577436816,3.1273027623214045,9.075746066938528,8.205378957367872,9.946113176509185,0.47592509885582673,-0.1813715836833925,1.133221781395046,0.4483288342056417,-0.18974187945740356,1.086399547868687
7.174647272263111,1.7208471201093727,0.5909649120929075,2.850729328125838,8.94541720234414,8.02912900449121,9.86170540019707,0.5069298166971533,-0.16958838010066757,1.1834480134949743,0.5476529809587025,-0.1500342111211147,1.2453401730385196
7.909842600753622,1.5274507097970704,0.450645282167377,2.6042561374267637,8.804709858626097,7.844548218163297,9.764871499088898,0.5334664782344025,-0.15903455880498152,1.2259675152737866,0.6618236631394999,-0.09569290613815451,1.4193402324171545
8.50998739376164,1.3988530100212204,0.360187855335927,2.437518164706514,8.691169283852005,7.699324006827144,9.683014560876867,0.5500923132018277,-0.15226775517811586,1.2524523815817714,0.758738402946167,-0.04380444573773257,1.5612812516300667
9.154096534153314,1.2843921487322967,0.28180806279871096,2.2869762346658824,8.571042903683837,7.548853069451301,9.593232737916374,0.5634370881475684,-0.14681336843215487,1.2736875447272917,0.8655200081685952,0.018363241097805405,1.712676775239385
9.849117612235606,1.1830367948207003,0.21425529598688964,2.151818293654511,8.44376521014046,7.392609257312449,9.494921162968472,0.5732320251661382,-0.14288080739080755,1.289344857723084,0.9830027646934012,0.09184172761440257,1.8741638017723998
10.582722952217143,1.0959804673629683,0.15776870081981853,2.034192233906118,8.312335342447692,7.234355674451438,9.390315010443947,0.579107130060569,-0.14068671243754804,1.2989009725586862,1.1085575274917392,0.17535408740971936,2.041760967573759
11.34626553987189,1.0225250613370365,0.11132773047157773,1.9337223922024953,8.178919121666109,7.07660584848686,9.281232394845357,0.5811288097894928,-0.14022432544267294,1.3024819450216585,1.2399520685443974,0.2674727401764555,2.2124313969123395
12.138216212280788,0.960797591666466,0.07325774891072645,1.8483374344222057,8.044298058109089,6.920116107302104,9.168480008916074,0.5796025196515742,-0.14135295266611103,1.3005579919692594,1.3760994222393375,0.36733475866065524,2.3848640858180197
12.957045806524777,0.9089969902403247,0.04205576899092767,1.7759382114897218,7.909178336589311,6.765523799587671,9.052832873590951,0.5749134665351494,-0.14387326499704722,1.293700198067346,1.51590819687554,0.47397367275782054,2.5578427209932593
13.823729147051692,0.8644196515315108,0.01580922659812134,1.7130300764649002,7.7706481954085875,6.609394772460806,8.931901618356369,0.5672656587020292,-0.14766148163450077,1.282192799038559,1.662086145889383,0.5893887572436831,2.734783534535083
14.418240320486163,0.8386346626970392,0.0009083076105668164,1.6763610177835115,7.678250499067742,6.50649710640792,8.850003891727564,0.56077725651505,-0.15074758813811584,1.2723021011682158,1.7609722444172073,0.6695134098238917,2.8524310790105227
15.029473773670498,0.815402149299272,-0.012324919855658867,1.6431292184542028,7.585439798868359,6.404078135679991,8.766801462056728,0.5532840118605883,-0.1542169885490393,1.2607850122702158,1.861276189271052,0.7523376109673632,2.970214767574741
15.660460891233093,0.7943056452425814,-0.02417147115813756,1.6127827616433004,7.491904927321641,6.301765354091163,8.682044500552118,0.5448599030702826,-0.15802054776688845,1.2477403539074539,1.9632351696080774,0.8380216004576251,3.0884487387585295
16.31120167317395,0.7750878256739426,-0.034811013710882244,1.5849866650587674,7.397802663736484,6.19970568785531,8.595899639617658,0.5356132468801204,-0.16209337028736004,1.2333198640476009,2.0665840893833964,0.9263105433172407,3.206857635449552
16.984053836193247,0.7574468923078239,-0.04444062457935294,1.5593344091950008,7.302953416689149,6.097681966083318,8.508224867294981,0.525618440085381,-0.16638613789969026,1.2176230180704521,2.1714281432254707,1.01726281339262,3.3255934730583214
17.67901738029098,0.7411816469528271,-0.05319440319128754,1.5355576970969418,7.2075224389542925,5.995851500652049,8.419193377256537,0.5149813321932525,-0.17083677689928833,1.2007994412857932,2.2774962288524563,1.1106119263717837,3.444380531333129
18.399997983292316,0.7260249038223711,-0.0612367406410248,1.513286548285767,7.111151276950928,5.893815207202447,8.32848734669941,0.5037461941855791,-0.17540999046670347,1.1829023788378616,2.3851025288634937,1.20660693185187,3.5635981258751173
19.146995645197254,0.7118300953607647,-0.06866166024487996,1.4923218509664093,7.014029703269377,5.791760759418736,8.236298647120018,0.49201434436387564,-0.18004784426759518,1.1640765329953464,2.4939559523667483,1.3049638848544578,3.6829480198790385
19.924002929800523,0.698392785356287,-0.07559012858630054,1.4723756992988746,6.915840688384742,5.689344155664905,8.14233722110458,0.4798233081677021,-0.18471918618999322,1.1443658025253973,2.6043360034475564,1.4059128754203558,3.8027591314747573
20.731019837102117,0.6856070689139758,-0.08208759039518476,1.4533017282231364,6.816797751131528,5.586779316467716,8.04681618579534,0.4672708892592038,-0.18937059782309018,1.1239123763414978,2.7159313596092693,1.5091485451323838,3.922714174086155
21.561838946685597,0.6734607837077383,-0.0881713345990569,1.4350929020145335,6.717832108839468,5.485010047459031,7.950654170219904,0.45454611459821276,-0.1939200598521757,1.1030122890486012,2.8276217765623213,1.6135938218766215,4.041649731248021
22.41646025855096,0.6618503838733589,-0.09390302904650816,1.417603796793226,6.619069313184911,5.3841353061372,7.854003320232623,0.4417314956699347,-0.19832979499207698,1.0817927863319463,2.939199191145155,1.7189980287346986,4.159400353555611
23.272176794088878,0.6509665527292773,-0.09920039070110953,1.4011334961596642,6.523132479632386,5.286779114447519,7.759485844817252,0.42922788915169596,-0.20246279654713328,1.0609185748505252,3.0476396312159206,1.8224093242967818,4.272869938135059
24.128988553299365,0.640691021800591,-0.10413304544580415,1.385515089046986,6.429903245203545,5.1927467878687805,7.667059702538309,0.4170694148674596,-0.20631667337536536,1.0404555031102845,3.153027339928997,1.923784799664599,4.3822698801933955
25.0052573154165,0.6307264543225674,-0.10885216964123001,1.3703050782863646,6.337357894861295,5.0999475003466825,7.574768289375908,0.4050299588665154,-0.20996819275286438,1.020028110485895,3.2576121462721925,2.0252039659581254,4.49002032658626
25.900983080440287,0.6210283628190102,-0.11338342575207572,1.3554401513900962,6.245555977205558,5.008411688624098,7.482700265787018,0.39314808907686977,-0.2134061851707137,0.9997023633244533,3.3612959337175754,2.1265192566930984,4.596072610742052
26.80605371689789,0.6116625703339033,-0.11770138727321477,1.3410265279410214,6.155542207085439,4.919144704564566,7.391939709606312,0.3815823654831496,-0.21658972435915302,0.9797544553254522,3.4628754274314137,2.2264921924224925,4.699258662440335
27.7204692247893,0.6025886452747877,-0.12182968753817036,1.3270069780877458,6.067277329208709,4.832065861954154,7.302488796463264,0.37034390952546986,-0.21952369788363252,0.9602115169345722,3.5623787612658235,2.3250815640916205,4.799675958440027
28.655210210766413,0.5936711387269582,-0.1258337645815948,1.3131760420355112,5.9797090532043615,4.746106084105831,7.213312022302892,0.3593114972960336,-0.22224589500670022,0.9408688895987675,3.660979449499608,2.423397386232282,4.898561512766934
29.61027667482922,0.5848956619421455,-0.12972199892238312,1.299513322806674,5.8928885672851505,4.661293839828181,7.12448329474212,0.34850291432391756,-0.22475527699503728,0.9217611056428724,3.758608518390935,2.5213328725730313,4.995884164208839
30.581302079763972,0.5762889227483836,-0.1334850422751297,1.286062887771897,5.807241813507286,4.578021396470568,7.036462230544004,0.3379779799842515,-0.22704360947669255,0.9029995694451955,3.8547802065084653,2.6183598954485947,5.0912005175683355
31.568286425570673,0.5678390211916946,-0.13713014621430486,1.272808188597694,5.7227769949756695,4.496271391969469,6.94928259798187,0.32774129322599066,-0.22911643069932508,0.8845990171513064,3.9494817117983425,2.714424068253683,5.184539355343002
32.57827293403906,0.5594791068965782,-0.14068798965377183,1.2596462034469282,5.638924099078646,4.4154718179216434,6.8623763802356486,0.31772604027752294,-0.23099314667108917,0.866445227226135,4.043349860643833,2.810136972373515,5.2765627489141504
33.611261605169155,0.5512075754119404,-0.14415990653157706,1.246575057355458,5.5557387696284435,4.3356603161913325,6.7758172230655545,0.3079414089336793,-0.2326760358723472,0.8485588537397057,4.136319821437879,2.9054054389429256,5.367234203932832
34.65062950681908,0.5431505040820216,-0.1474952477953433,1.2337962559593865,5.474550574675142,4.258089103802486,6.691012045547798,0.29854044614022274,-0.23414733575382124,0.8312282280342667,4.226908979184636,2.9986729258626514,5.455145032506621
35.69637663898885,0.5352962971942619,-0.15070147241904708,1.221294066807571,5.395290754112522,4.182663053615421,6.607918454609623,0.2895079248920016,-0.23542072181788365,0.8144365716018869,4.315201320995478,3.0899819717095136,5.540420670281443
36.75809710295018,0.5275660570942766,-0.15381320104742102,1.2089453152359741,5.317198420174167,4.108634947171219,6.525761893177115,0.2807505316923658,-0.23651898457582105,0.7980200479605526,4.402051048133468,3.1801806026542083,5.623921493612728
37.83579089870308,0.5199572113370872,-0.15683259888273027,1.1967470215569045,5.240271910439466,4.035985433554358,6.444558387324574,0.2722636705394712,-0.23744961723219893,0.7819769583111413,4.487464419021064,3.2692483334933633,5.705680504548765
38.922218461820265,0.5125164244878821,-0.1597432164968411,1.1847760654726054,5.165002309731043,3.9651589082066696,6.364845711255416,0.26409455098738355,-0.23821620835025048,0.7664053103250176,4.570903139281574,3.3565946614687237,5.785211617094425
40.01737979230174,0.5052375987028378,-0.16254926996432495,1.1730244673700005,5.091341903950071,3.896089866167094,6.286593941733049,0.25623031221401,-0.23882915203141553,0.7512897764594355,4.65242778383592,3.442253319981254,5.862602247690586
41.12628972036102,0.4980832696981246,-0.16526723107979063,1.1614337704760398,5.0189219901339746,3.8284150408576783,6.209428939410271,0.24862406786474336,-0.2393006889695998,0.7365488246990866,4.732453942001283,3.5266352061408823,5.938272677861683
42.24894824599811,0.49105110634114424,-0.1678991013937825,1.150001314076071,4.9477261030678505,3.76210416021887,6.133348045916831,0.24126823999393918,-0.23963820208507128,0.7221746820729497,4.811005656938211,3.6097442641943083,6.012267049682114
43.38185510294481,0.48415989584039654,-0.17043968686131528,1.1387594785421085,4.877949957504122,3.6973245221942026,6.058575392814042,0.23417592148418545,-0.23984892393633275,0.7082007669047037,4.887874121011691,3.6913378871457962,6.084410354877587
44.52501029120111,0.47740578513369764,-0.1728917918169262,1.1277033620843215,4.809558293223037,3.6340283927163295,5.985088193729744,0.22733679069436533,-0.2399407152839931,0.6946142966727238,4.963104916082596,3.771443571881262,6.15476626028393
45.686741885093284,0.47073799627443363,-0.1752753694259414,1.1167513619748086,4.742039780709439,3.5717305341369787,5.9123490272819,0.22069359126277438,-0.23992100190899568,0.6813081844345444,5.037266628027785,3.8506494702534058,6.2238837858021645
46.867049884621316,0.4641570711397593,-0.17759072392107994,1.1059048662005986,4.6754017780930495,3.5104283274750543,5.840375228711045,0.21424295495483625,-0.23979457871522142,0.6682804886248939,5.110355266952114,3.9289379856923903,6.291772548211838
47.45720388438533,0.46093705354536785,-0.17871007997360733,1.1005841870643431,4.642796928031002,3.480499936238199,5.805093919823805,0.21112484845756724,-0.23969434087306796,0.6619440377882024,5.146078223511431,3.9672840267944256,6.324872420228436
48.06458348571506,0.4576706468189696,-0.17983636494041516,1.0951776585783544,4.609723108684746,3.4501849163758624,5.76926130099363,0.2079874527401723,-0.23956700806338002,0.6555419135437246,5.182289438575081,4.006208401586945,6.358370475563217
48.67196308704479,0.45445145604658443,-0.1809371546089541,1.089840066702123,4.577128235914383,3.420351891150664,5.733904580678102,0.20492067265297706,-0.2394162825626339,0.649257627868588,5.2179510914326395,4.044595092178882,6.391307090686397
49.27934268837452,0.4512784388186578,-0.18201301175548534,1.0845698893928009,4.545001808181908,3.3909891938167824,5.699014422547034,0.2019225199183836,-0.2392432094458016,0.6430882492825688,5.253075671899708,4.08245489559326,6.423696448206156
49.88672228970425,0.44815058007035813,-0.1830648651420479,1.0793660252827642,4.513333658127401,3.3620855759060393,5.664581740348762,0.19899061637923998,-0.23904907579387602,0.637030308552356,5.287675725493359,4.119798582958628,6.455552868028089
50.51429294118226,0.44496513837452695,-0.18412704098711913,1.074057317736173,4.481083643135405,3.3326917590843315,5.629475527186479,0.19602892042629305,-0.23882737150611427,0.6308852123587003,5.322887436438301,4.157852417208179,6.487922455668423
51.14186359266027,0.4418258151395705,-0.18516475045104425,1.0688163807301851,4.449301730759189,3.303764774866865,5.594838686651514,0.1931339837699279,-0.23858521695932794,0.6248531844991838,5.3575642854708825,4.195377267885501,6.519751303056264
51.76943424413828,0.4387315951366684,-0.1861785206659221,1.0636417109392589,4.417977637945363,3.2752933660504073,5.560661909840318,0.19030393463804823,-0.23832355504714214,0.6189314243232387,5.391718427416588,4.232383881977281,6.551052972855896
52.39700489561629,0.4356814894791621,-0.18716928002644095,1.0585322589847652,4.387101411932341,3.2472666799805205,5.5269361438841615,0.18753648262605363,-0.2380435678728766,0.6131165331249838,5.425362105441604,4.268883003352983,6.581841207530224
53.04411232954203,0.432581617469369,-0.1881673209976073,1.0533305559363453,4.355722732650172,3.2188220651756474,5.492623400124696,0.18474663561977972,-0.2377365794269547,0.6072298506665141,5.459530631730047,4.305997697481013,6.613063565979081
53.69121976346778,0.42952661853023927,-0.18914198378458597,1.0481952208450644,4.32479963644058,3.1908279364026333,5.458771336478526,0.18201962639652147,-0.23741193144382045,0.6014511842368634,5.493180737162898,4.342594576903851,6.643766897421944
54.338327197393525,0.4265155076704377,-0.19009375862173522,1.0431247739626106,4.294322116545824,3.1632734879943674,5.425370745097281,0.17935370724004165,-0.2370704677616343,0.5957778822417176,5.526324176214133,4.378684244277855,6.673964108150411
54.985434631319265,0.4235473251921527,-0.19102357008104737,1.0381182204653527,4.264280490108498,3.1361483031336874,5.392412677083309,0.17674668668241977,-0.2367132641879277,0.5902066375527673,5.55897282320908,4.414277323979184,6.703668322438976
55.65372632931459,0.42052604964157325,-0.19196127111615513,1.0330133703993016,4.233702924459346,3.1085749677702017,5.3588308811484895,0.17411446639296757,-0.23632866064679275,0.5845575934327278,5.592182609147685,4.450525005688546,6.733840212606824
56.32201802730991,0.4175485793367631,-0.1928765687980732,1.0279737274715994,4.203570131420446,3.0814379045627547,5.3257023582781375,0.17154157606721546,-0.2359289077542803,0.5790120598887112,5.6248882925123365,4.486264586845513,6.76351199817916
56.99030972530523,0.4146139528752926,-0.1937699188952942,1.0229978246458795,4.173872327427021,3.054726682943383,5.293017971910659,0.1690263797216979,-0.23551476220936665,0.5735675216527625,5.657101292851279,4.5215065534894165,6.792696032213142
57.65860142330055,0.4117212333210375,-0.19464225179721273,1.0180847184392876,4.144600048833102,3.028431249363134,5.260768848303069,0.1665667671178358,-0.23508720637013664,0.5682207406058082,5.688833184049061,4.556261441436625,6.821404926661497
58.347831842591276,0.40878081891210666,-0.1955203728674237,1.013082010691637,4.114846598251627,3.0017371326035587,5.227956063899695,0.1640867519713781,-0.23463293875638133,0.5628064426991375,5.7210666497769935,4.591605529923284,6.850527769630703
59.037062261882,0.4058830518173648,-0.19637709223402006,1.0081431958687497,4.085526145477192,2.975464519418799,5.1955877715355845,0.16166259931779703,-0.23416586975919723,0.5574910683947913,5.7528112552050095,4.6264527419715025,6.8791697684385165
59.72629268117272,0.403026996854874,-0.19721283012238855,1.0032668238321365,4.056629164678421,2.9496033745133365,5.163654954843506,0.1592927860475857,-0.23368667384239192,0.5522722459375633,5.784078049273992,4.660813387277642,6.907342711270342
60.415523100463446,0.40021174239521917,-0.1980285210980589,0.9984520058884973,4.028146444454524,2.924144026827876,5.132148862081173,0.15697528665748856,-0.2331962411578526,0.5471468144728298,5.814878268887985,4.694697854723494,6.935058683052476
61.11877920190778,0.3973803385332584,-0.19884057367361452,0.9936012507401313,3.999501785921437,2.898570977641264,5.10043259420161,0.15466313081841132,-0.23268488577277435,0.542011147409597,5.84583508326015,4.728791141503945,6.962879025016355
61.82203530335211,0.39458958709229974,-0.19963261888475714,0.9888117930693566,3.9712698281226024,2.873396798762929,5.069142857482276,0.15240247879868468,-0.23216310007895813,0.5369680576763275,5.876327693078711,4.762408956292476,6.990246429864945
62.52529140479644,0.39183860631620654,-0.20040503454254116,0.9840822471749542,3.9434415849665103,2.8486121282319754,5.038271041701045,0.1501919540520849,-0.2316314675217152,0.532015375625885,5.906366460981403,4.795561107777271,7.017171814185534
