Time,Input1,Input2,Output,Signal
0,0,10,0,0
0.5642823894428947,0.05176854599440212,9.999974296852502,0.000022428395920953082,0.000003274751575824227
1.2273424173697314,0.10208734910614628,9.999749538204897,0.0001881482930330669,0.00006231350206983784
1.7993454394942343,0.13792240188406274,9.999246188631894,0.0005020656986820466,0.0002517456694232123
2.423961302918894,0.17044919428105076,9.998245225902304,0.0010334849982998884,0.0007212890993955212
3.1282841065711793,0.20033632577384683,9.996425995049927,0.0018499341877697205,0.001724070762301046
3.8926687130899755,0.2262213932247035,9.993495021555294,0.0029569783112735,0.0035480001334322014
4.53583673070009,0.24376933452502567,9.990178358792397,0.004032309907999385,0.005789331299601849
5.230105861927458,0.2592332074122249,9.985666588727797,0.0053080155754719385,0.009025395696728672
5.965426399294098,0.27244709711443665,9.979786615618485,0.006757690035586498,0.013455694345927732
6.796660333447969,0.284300165516823,9.971733454724964,0.008482846822814614,0.019783698452220194
7.663214169132788,0.2939700772025725,9.961720510894038,0.010343951575533424,0.02793553753042772
8.252690026766317,0.29932596839874537,9.953958956174246,0.011631188985669819,0.03440985484008402
8.903011423861559,0.30432448113502053,9.94450403815075,0.013060665260370627,0.04243529658887882
9.5533328209568,0.30854790701115586,9.934117810570585,0.014491959072122406,0.051390230357294536
10.25334894005428,0.31240219566392247,9.921906371631076,0.016027031994807737,0.06206659637411936
10.95336505915176,0.31568850272991983,9.908638618677509,0.017549734517911437,0.073811646804581
11.72410695690614,0.31879701478642614,9.892827973340482,0.019205813700597485,0.08796621295892239
12.494848854660518,0.32149687948592887,9.875781043740762,0.02083504765545522,0.10338390860378566
13.33928071263485,0.32410665007349954,9.855716942824767,0.02258468440991562,0.12169837276532008
14.183712570609181,0.3264525104377776,9.834238882496248,0.02429319640739804,0.14146792109635437
15.023426177452485,0.32860233262973565,9.81151759345275,0.025949097937622866,0.16253330860962648
15.863139784295791,0.3306291295169567,9.787476622043119,0.02755981874919541,0.18496355920768584
16.699073418932333,0.33256937687962373,9.762272920875715,0.029117808979363443,0.20860927014492273
17.535007053568872,0.33446603148113346,9.735840993251339,0.030629369951144625,0.23352963679751773
18.35993960899028,0.3363197511314784,9.708591560873593,0.032075886638583614,0.2593325524878235
19.184872164411694,0.33817399351052585,9.680222495916578,0.03347719585783813,0.2863003082255857
20.002735222432896,0.3400262630283613,9.651028070745987,0.034822757157501806,0.31414917209651305
20.8205982804541,0.34190227953293306,9.620805756673652,0.03612478953675396,0.343069453789593
21.629630540971043,0.3437884121678623,9.589933039488354,0.037371100380854096,0.3726958601307915
22.43866280148799,0.34570981552996777,9.558122494622427,0.038576200887573214,0.40330130448999846
23.24220491783833,0.34765652363432686,9.525631892990505,0.03973362681381508,0.4346344801956796
24.045747034188665,0.34964383350884615,9.492279893102303,0.040852018130507206,0.4668680887671897
24.84362547825357,0.3516587449886284,9.458340950061828,0.04192525418213112,0.4997337957560405
25.64150392231848,0.3537160133784994,9.423612278216565,0.04296172237103084,0.5334259994124042
26.436003794067688,0.3558069941179635,9.388274320762095,0.04395862913970946,0.5677670500981947
27.23050366581689,0.35794039069207684,9.352209181467538,0.04492082201488126,0.6028699965175799
28.021858710204512,0.3601072517443196,9.315590546090938,0.045846049369237536,0.6385634045398243
28.81321375459213,0.36231559241559086,9.278302869133082,0.046738562403283015,0.6749585684636356
29.602887661097533,0.36456003387769154,9.24045250975593,0.04759789629496367,0.7119495939491067
30.392561567602932,0.36684466954005296,9.201985229075396,0.04842633850552897,0.749588432419077
31.180846110513645,0.3691646846144741,9.162993875639984,0.04922380967943405,0.7877823146805844
31.969130653424358,0.37152342730840343,9.123434144511235,0.0499921267454316,0.8265737287433347
32.75694445135621,0.37391872578986285,9.083352354953648,0.050732119916042734,0.8659155251303096
33.544758249288066,0.37635132893303386,9.042746594830858,0.05144456097807756,0.9058088441910656
34.33235341374909,0.37881983099803346,9.001649281598395,0.052130491671040585,0.9462202267305649
35.119948578210106,0.38132428155880205,8.96006954340362,0.052790387477345456,0.9871400691190366
35.90789720617406,0.38386515561549994,8.918008159885847,0.053425719667142275,1.028566120447012
36.69584583413802,0.38644076503223473,8.87550288877133,0.05403642894294734,1.070460682285725
37.48433887420091,0.3890523085825623,8.832542579093797,0.054624069513045354,1.11283335139316
38.2728319142638,0.3916975048847551,8.789174595186479,0.05518842186028276,1.1556369829532402
39.0622211376144,0.39437886359824564,8.745366610338758,0.05573121123728852,1.1989021784239546
39.851610360965,0.39709294548541996,8.701184851865971,0.05625196224140368,1.242563185892627
40.642026854403724,0.3998428562985561,8.6565877986696,0.056752399791112886,1.2866598015392883
41.43244334784245,0.40262469572140747,8.611648944086552,0.05723197973734955,1.3311190761761034
42.224096047387775,0.4054424622897831,8.566313008795145,0.05769246117892682,1.3759945300259324
43.0157487469331,0.40829150091934435,8.520665381294362,0.05813319475614448,1.4212014239494983
43.808716564974574,0.4111762556651187,8.474644414578876,0.05855589023693466,1.4667996951841948
44.60168438301605,0.4140917478917483,8.428340231389953,0.05895988587416221,1.5126998827358908
45.3960812253256,0.4170430050474114,8.381682784006966,0.05934685593216135,1.5589703600608786
46.19047806763516,0.42002458327411857,8.334769040212349,0.0597161129097049,1.6055148468779505
46.98633967195822,0.4230418078381394,8.287525199433693,0.060069256562326624,1.6524055440039846
47.782201276281285,0.42608904229870187,8.240050574168007,0.06040561853883227,1.6995438072931663
48.57957685682514,0.429171962686782,8.192266894611903,0.06072673096854219,1.7470063744195603
49.376952437369006,0.43228468121091623,8.14427660908985,0.0610319392211188,1.7946914516890367
50.17584330196887,0.4354330379176542,8.095999959551005,0.06132269154758203,1.8426773489014185
50.97473416656873,0.4386110701760243,8.047539651571038,0.06159836736070513,1.8908619810682645
51.775144941756025,0.44182479170833394,7.998814358230036,0.06186033628469925,1.9393253054852715
52.57555571694333,0.4450681493233829,7.949927189990479,0.06210800834349544,1.9879648016660334
53.37746128784434,0.44834720550121704,7.900797189504592,0.06234266992648112,2.0368601405689346
54.17936685874536,0.4516559332403219,7.8515260101563085,0.06256376934364566,2.0859102205000544
54.98274125550506,0.4550004335287555,7.802033243792646,0.06277251507663788,2.1351942411307245
55.786115652264755,0.45837471014455705,7.75241896593097,0.0629683903066852,2.1846126437623523
56.59091445871577,0.4617848177163478,7.702604578915803,0.06315252683756357,2.2342428942466412
57.39571326516679,0.46522486905470606,7.652687379887532,0.06332444398604266,2.283988176126433
58.20189010131083,0.4687008552037139,7.6025908214704785,0.0634852025439599,2.3339239759855697
59.00806693745487,0.47220701017288,7.552409234260603,0.06363435418572476,2.38395641155368
59.81556427868221,0.47574920363316847,7.5020689242325584,0.06377289264963087,2.434158183117818
60.62306161990955,0.479321843151042,7.451660503108138,0.06390040015526163,2.4844390967366086
61.43182034300696,0.4829306597488869,7.401113330805266,0.064017809163981,2.5348688600307603
62.24057906610437,0.4865702474010715,7.350514145205852,0.06412472847848755,2.585361126315668
63.05053380000509,0.49024615984606934,7.299795841643933,0.06422203427415869,2.6359821240819157
63.860488533905816,0.4939532115992302,7.249040846558493,0.06430935885988481,2.686649794581631
64.67157328457711,0.49769676524178635,7.198185710202314,0.06438752769166184,2.7374267621060318
65.48265803524839,0.5014718658837326,7.147308468794469,0.06445619273812161,2.7882353384674174
66.29480393953938,0.5052836604217473,7.0963495775900025,0.06451613383263598,2.839134288577369
67.10694984383035,0.5091274453349465,7.04538247133888,0.0645670192483479,2.89005050941278
67.9200885418665,0.5130081428184655,6.994351538827886,0.06460958828865007,2.941038872883471
68.73322723990267,0.5169213064711861,6.943325621463886,0.06464352205483566,2.992030856481285
69.5472898687655,0.5208716199701388,6.892253123709716,0.06466952403152748,3.043077352258763
70.36135249762833,0.5248549047166323,6.841198246359909,0.06468728503572045,3.0941144686043773
71.17627174229142,0.5288756020368662,6.790113354105775,0.06469747718439665,3.1451891687098352
71.9911909869545,0.5329298021959478,6.739058095753679,0.0646997980667921,3.196242106179536
72.80690068362415,0.5370216986344939,6.687988757557833,0.06469489252112783,3.2473163499210456
73.6226103802938,0.5411476534006309,6.636960506557912,0.06468246229067583,3.2983570311514185
74.4390467713542,0.5453116131182971,6.585933426067061,0.06466312866796624,3.3494034452649792
75.25548316241459,0.549510208214084,6.534958355965499,0.06463659521395916,3.4004050488205473
76.07258477456708,0.5537471394110067,6.483999053459085,0.06460346305632607,3.451397483484595
76.88968638671955,0.5580193024193967,6.433102183061586,0.06456343554306655,3.5023343813953534
77.70739479262923,0.5623301574540504,6.382234999812826,0.06451709664588114,3.553247903541299
78.5251031985389,0.5666768581587066,6.331440196227257,0.0644641477761487,3.6040956559965998
79.3433629975219,0.5710626301743061,6.280688345920707,0.06440515842519373,3.6549064956541053
80.16162279650487,0.575484877331852,6.230018374614776,0.0643398266266751,3.705641798758555
80.9803820618958,0.5799465997289754,6.179403963961846,0.06426870971768592,3.756327326320474
81.79914132728673,0.5844454407190077,6.12888050814405,0.06419150120289617,3.8069279906530586
82.61835160680644,0.5889841846708612,6.07842458366163,0.06410874828754354,3.857466668050831
83.43756188632615,0.5935607031407065,6.028068289794483,0.06402013904796641,3.9079115711575563
84.25717844476435,0.5981775767556538,5.9777908679150915,0.06392621227011935,3.958282919814795
85.07679500320256,0.6028328919256529,5.927621374654701,0.06382664995674107,4.0085519753885634
85.89677680698753,0.6075290383229682,5.877541486172518,0.06372198391979912,4.058736529907688
86.7167586107725,0.612264303173327,5.827577467630324,0.06361188965939313,4.108810642710289
87.53706843602097,0.6170408995218036,5.777713192908184,0.06349689319424867,4.158789913897573
88.35737826126945,0.6218572999457412,5.727972392746464,0.06337666330508067,4.208650943948462
89.17798265206336,0.6267155559098728,5.678340904481902,0.06325172116990053,4.258407374348204
89.99858704285728,0.6316143092525155,5.628840177570472,0.0631217288124777,4.308038093617055
90.81945633068403,0.6365554660064753,5.579457778184673,0.06298720330280404,4.357555018512529
91.64032561851079,0.6415378201698981,5.530213126938995,0.06284780004119893,4.406939073019811
92.46143385524243,0.6465631491006656,5.481095289585165,0.06270403253230751,4.456200677882533
93.2825420919741,0.6516303813224348,5.432121903938454,0.06255554983028389,4.505322546231267
94.10386701255008,0.6567411830737476,5.383283310074094,0.06240286223821549,4.554313827687696
94.92519193312607,0.6618945990422627,5.334595604063156,0.062245612875077856,4.603158783061771
95.7467148691714,0.6670922024065399,5.286050182347047,0.0620843090512418,4.651865508601715
96.56823780521671,0.6723331352127369,5.2376618320462285,0.06191858847347723,4.7004195794802985
97.38994361308865,0.6776188962321142,5.189422794755221,0.061748955525177146,4.7488282497196055
98.21164942096058,0.6829487055253763,5.14134677377471,0.06157504312548364,4.797078183099812
99.03352638280214,0.6883240065271883,5.093426653230888,0.06139735267247283,4.8451759940966435
99.85540334464369,0.6937440775968142,5.0456752682543415,0.06121551300686254,4.893109218738801
100.67744307770138,0.6992103263657905,4.998085951192562,0.06103002237013951,4.940884026437304
101.49948281075906,0.7047220693542797,4.950670875496512,0.06084050630892336,4.98848861819457
102.32168016255312,0.7102806982829906,4.903423636723546,0.06064745963898832,5.035928903637471
103.14387751434718,0.7158855473705839,4.856355943020254,0.06045050545914396,5.083193551520608
103.96623046378897,0.7215380127036984,4.809461477222723,0.06025013480231994,5.130288387974963
104.78858341323078,0.7272374253822135,4.7627516686908224,0.06004596921960688,5.177202362089577
105.61109296575566,0.7329852064637621,4.716220121126322,0.05983849552774912,5.223941383345935
106.43360251828052,0.7387806628078979,4.669878161357742,0.059627334674009345,5.270494503968255
107.25627260610605,0.7446252613947523,4.623719156831154,0.05941296875777993,5.316867874411073
108.07894269393158,0.750518263395609,4.577754498099985,0.059195019103445226,5.363050482796576
108.90178007525755,0.7564612029857025,4.531977168627272,0.05897396253324273,5.409048868839492
109.72461745658352,0.7624532738946234,4.486398778879026,0.058749421759160765,5.45485179936182
110.54763162004127,0.7684960991052817,4.441011789730133,0.05852186771472596,5.500466342555147
111.37064578349904,0.7745887828243889,4.39582817798473,0.05829092553420783,5.5458808964810675
112.19384885439383,0.7807330587894891,4.350839752353389,0.05805705960626738,5.591103188040349
113.01705192528863,0.7869279192774977,4.306058992766827,0.057819898540694054,5.636121108692483
113.84045857725519,0.7931752310833167,4.261476934918749,0.057579899486097416,5.680943165595158
114.66386522922177,0.7994738517971757,4.217106689355479,0.05733669559543957,5.7255566150490855
115.48749259956581,0.8058258039394622,4.172938406406398,0.057090736048557175,5.769970857545049
116.31111996990985,0.8122297872943917,4.128985945671738,0.05684165961952502,5.8141723947087405
117.1349875802154,0.8186880031640744,4.0852384679637765,0.05658990676168404,5.858171625274543
117.95885519052094,0.8251989700198435,4.041710691664408,0.05633512295519722,5.901954185380399
118.78298487215461,0.8317650914113104,3.998390691817135,0.05607773914435921,5.9455315690385095
119.60711455378829,0.8383846805788664,3.9552941469246288,0.05581740860447269,5.988888444470902
120.43153037849955,0.8450603672195237,3.9124079576052684,0.055554551967100664,6.032037490427634
121.2559462032108,0.8517902349869194,3.8697488557659816,0.0552888313932591,6.074962312840762
122.08067441915611,0.858577164088516,3.827302486216398,0.05502065638016496,6.11767685740344
122.90540263510141,0.8654189837668573,3.7850867198443434,0.054749699064501535,6.160163581091157
123.73047160782241,0.8723188495931797,3.743085871243376,0.054476356972608005,6.202437771784019
124.5555405805434,0.8792743110773314,3.70131902847323,0.05420031330415441,6.244480658222618
125.38098073952963,0.8862888245322388,3.6597691081544603,0.05392195276565032,6.286308939079891
126.20642089851586,0.8933596338805118,3.6184564866740083,0.05364097070286186,6.327902542623131
127.03226468854538,0.9004905221089299,3.5773626212920897,0.05335773814358574,6.369279640564326
127.85810847857492,0.9076784011344329,3.5365092411457106,0.053071963656955226,6.4104187951973355
128.68439031634102,0.9149274071400534,3.4958762888150514,0.05278400372531544,6.451339707459635
129.5106721541071,0.9222340930176692,3.4554869042012633,0.052493581211314484,6.492019514587424
130.33742838984244,0.929602975294909,3.415319465670636,0.0522010371792093,6.532479497150157
131.16418462557778,0.937030220181565,3.3753985757961305,0.05190610984695994,6.57269531435691
131.99145350932343,0.9445207523588153,3.3357010047233255,0.05160912398409574,6.612689871292579
132.8187223930691,0.9520703230241566,3.2962528637764423,0.05130983421611334,6.652437302007445
133.64654404589692,0.9596842935213927,3.257029276133017,0.05100854813879583,6.691962175728188
134.47436569872477,0.9673579709921007,3.2180579024059868,0.05070503782681826,6.731237059767195
135.30278208836165,0.9750971826885301,3.179312185082572,0.05039959282250212,6.770288222094926
136.13119847799854,0.9828967619020021,3.140821369311817,0.05009200367964097,6.809086627008542
136.96025339906822,0.9907630318163928,3.1025571879553593,0.049782541008169326,6.847660271036471
137.78930832013788,0.9986903212865632,3.0645505009105363,0.049471014858261886,6.8859784842312015
138.61904737863335,1.0066854802675875,3.026771307052149,0.04915767603086167,6.924071016916988
139.44878643712883,1.0147423017602715,2.9892521064316258,0.04884235507604396,6.9619055384923305
140.27925703909042,1.0228681941875482,2.9519611439445335,0.048525282112938814,6.999513573942528
141.10972764105202,1.031056382406078,2.914932580616035,0.048206309180257055,7.0368611102037075
141.94097898546022,1.0393148659031322,2.878132891540393,0.0478856448476709,7.073981463611935
142.77223032986842,1.0476362681855989,2.8415979151629487,0.04756316361546249,7.110838921221589
143.60431340531613,1.0560292133416762,2.8052923449527,0.04723905164289045,7.14746860340441
144.43639648076388,1.0644856893667192,2.769253709034141,0.04691320684777462,7.183833084118085
145.2693640661876,1.0730149794713921,2.7334449112472425,0.04658579212606398,7.219969296626694
146.1023316516113,1.0816084009766,2.6979051776581677,0.04625672975104723,7.255838092590786
146.93623832068766,1.0902759317645945,2.6625956181403696,0.045926158512029,7.291478223347602
147.77014498976405,1.0990081822749465,2.6275571611339656,0.04559402595643525,7.3268488129096
148.60504711906964,1.1078158616834721,2.592749121722991,0.04526044593460571,7.361990432342404
149.43994924837526,1.116688836252184,2.5582141314871105,0.044925392166299316,7.39686047634659
150.27590502903274,1.1256385841892853,2.5239097132789885,0.04458895274314772,7.431501333977863
151.1118608096902,1.1346541891495923,2.489880199061564,0.04425112843361929,7.465868672504817
151.94893026278726,1.1437479372779296,2.4560813252559073,0.04391198076492922,7.500006693979164
152.7859997158843,1.1529080900103088,2.422559118080247,0.043571538407545206,7.533869343512207
153.624244711156,1.1621477815424357,2.3892675364534135,0.04322983553427327,7.5675026280123125
154.4624897064277,1.1714544102533067,2.356254291471569,0.04288692954627307,7.600858778982157
155.30197398459694,1.1808419997640798,2.323471576487978,0.042542826489210414,7.633985597022811
156.14145826276615,1.1902970432817224,2.2909687749823138,0.04219761329763426,7.666833611720051
156.98224746112885,1.1998344965348449,2.2586963295863614,0.04185126713634767,7.69945240327729
157.82303665949158,1.2094399041195087,2.2267052806611565,0.041503905248376195,7.731790814090467
158.66519834108635,1.2191291979134078,2.194944337760946,0.041155475184592165,7.763900187054461
159.50736002268113,1.2288869290869053,2.163466179735119,0.04080612524244401,7.795727695022436
160.35096370874408,1.2387300511181343,2.1322178034138113,0.04045577264827266,7.827326423937915
161.194567394807,1.2486420755110845,2.1012535049500727,0.04010459746904516,7.858641897580881
162.03968460063183,1.258641024258026,2.070518591423167,0.03975248592024915,7.889728922656582
162.88480180645666,1.2687093214775795,2.0400689524116897,0.03939965052089538,7.920531397067413
163.73150608074172,1.2788661061069229,2.009848230749804,0.0390459458154047,7.95110582343479
164.5782103550268,1.2890926656274677,1.9799138829657619,0.03869161742303831,7.981394499611199
165.42657732263723,1.2994093059241323,1.9502079156075494,0.03833648758496106,8.011455596807489
166.27494429024765,1.3097961270016687,1.9207893231668687,0.037980835632732586,8.041229841200398
167.12505169846457,1.3202746533244956,1.8915985062407004,0.03762445090204054,8.070777042857259
167.97515910668153,1.3308237449370186,1.8626959658724458,0.03726764701075815,8.100036387116795
168.82708687494437,1.3414661982017506,1.834020529347376,0.03691017981884588,8.129069290833778
169.67901464320724,1.3521795790171762,1.805634170503073,0.03655239776453622,8.157813431732393
170.5328449166149,1.3629880107114896,1.7774741781803685,0.03619402269573786,8.186331799123895
