Time	Input1 (Mean)	Input2 (Mean)	sp_2 (Mean)	Signal (Mean)	Input1 (Std)	Input2 (Std)	sp_2 (Std)	Signal (Std)
0	10	10	0	0	0	0	0	0
0.000833325000083332	9.99975000593738	9.99999999968751	3.12488021151507E-10	2.60405275034096E-15	0.0158109831434426	1.76774043678296E-05	1.76773307128373E-05	5.10299201482956E-08
6.44388949369283	8.25853435261418	9.98269999481105	0.0162169267891357	0.00108307839981317	1.18810613949878	0.131291158155042	0.127129420578826	0.0329062439313128
13.1607176321942	6.79720612230669	9.93335254707664	0.0583770316203422	0.00827042130302028	1.44874522853338	0.256364092225001	0.240140657566547	0.090859803288764
19.8281700211144	5.6335712242577	9.86004152237137	0.114557661841761	0.025400815786874	1.5277461565497	0.368653648589359	0.334430177789873	0.158936991903046
25.891370435526	4.77538224259772	9.77740640320873	0.17125103818844	0.0513425586028343	1.52876513953916	0.460878945517934	0.406483140220588	0.225332486953587
33.3570351330416	3.92791646211388	9.66030894822796	0.242069141557638	0.097621910214409	1.48467139439603	0.562303437985714	0.479742299441814	0.309170200883774
39.9379335801658	3.33410012175596	9.54706793434597	0.301638566771912	0.151293498882121	1.4262078492076	0.641477455261578	0.532266894540919	0.382678276208396
47.5184479017479	2.79002620748479	9.40892635501626	0.364080405033277	0.226993239950471	1.3509577591744	0.721952796897061	0.581100625453388	0.464951303646536
55.9845281579126	2.32036829582219	9.24885307626037	0.424108275187746	0.327038648551891	1.26718479602302	0.799773164021493	0.623501183771467	0.552127727800474
62.1429256584942	2.05019790122812	9.13052086639662	0.460898906034891	0.408580227568488	1.20996203634627	0.849322843976283	0.647728753438041	0.611744386959921
68.81626631198	1.81103426971229	9.00183042642534	0.494298676280825	0.503870897293834	1.15307468618811	0.897085928398963	0.668768015806459	0.672397485098929
76.0045501183697	1.60351191965947	8.8637453630707	0.523162755776058	0.613091881153245	1.09829025359373	0.942414302188717	0.686339448077474	0.732971593313808
83.8002776080458	1.42470456153872	8.71563895443259	0.546845258903197	0.73751578666422	1.04657125977206	0.985274054862396	0.700442681100234	0.793079682268588
92.2034487810083	1.27378643451896	8.558804290323	0.564563525710945	0.876632183966061	0.999152597186584	1.02511108295743	0.710920235727918	0.851532493020816
101.559909770609	1.14432723675688	8.38841618039283	0.576200254901827	1.03538356470535	0.955411849739873	1.06281440434846	0.717939776697697	0.909278114139579
111.869660576846	1.03656476368505	8.20646633407311	0.581012606755036	1.21252105917186	0.916467918432879	1.09751337198401	0.721198400493034	0.964642366194485
122.871727680408	0.950474850983379	8.01941634471543	0.578962823551193	1.40162083173339	0.883518441221802	1.12794657835056	0.720684001830203	1.01510754487297
134.566111081292	0.882139774501367	7.82877265615313	0.570797871095607	1.60042947275127	0.855978103985986	1.15414775166219	0.716736904850085	1.06017683018718
146.749783532615	0.828433122295406	7.63900518082772	0.557725192695875	1.80326962647641	0.833373697537136	1.1759277466873	0.709896565272626	1.09900803586404
153.086264283496	0.805665368109741	7.54378307686076	0.549638293677745	1.9065786294615	0.823493941169435	1.18538005944006	0.705512487236619	1.11634396833007
159.422745034377	0.785652222734279	7.45086519102889	0.540919764375631	2.00821504459549	0.814638419707891	1.19371495535979	0.700688052973994	1.13193673423486
165.759225785258	0.76784834557023	7.3601966805906	0.531731327284048	2.10807199212536	0.806634113328332	1.20104077482758	0.695504633028929	1.14592863977429
172.307241735063	0.751413333550519	7.26879429520426	0.521879018090803	2.20932668670494	0.799123041159033	1.20765450952664	0.689843016221999	1.15885665810227
178.855257684869	0.736626395030284	7.17965276802252	0.51178533329066	2.30856189868683	0.792257514321998	1.21338997942733	0.683935992807485	1.17036433686399
185.403273634674	0.723218974066369	7.09269984329418	0.501551108360839	2.40574904834498	0.785934615168011	1.21833216811502	0.677839219613062	1.18057889459993
191.951289584479	0.710926689658903	7.00786674225015	0.491263889171091	2.50086936857876	0.780060648998696	1.2225565105692	0.671603380551134	1.18961633446127
199.367642183985	0.698146257519097	6.91425393874513	0.479629888848489	2.60611617240639	0.773867878560848	1.22655890803038	0.664422692484827	1.19856586779995
206.78399478349	0.68637428640493	6.82316916807536	0.468090079836032	2.70874075208862	0.768080886286184	1.2298138562429	0.657163369364086	1.20628001269933
214.200347382995	0.675449731189539	6.73451524867022	0.456705135501201	2.80877961582858	0.762632391751438	1.23239850407254	0.64986518590214	1.21288176685391
221.6166999825	0.665205735386254	6.64820083697689	0.445524472759861	2.90627469026325	0.757463052396831	1.23438101320524	0.642567583072263	1.21848786752914
229.655647323148	0.654766889273312	6.55717770793604	0.433671939225738	3.00915035283823	0.752130246152282	1.23591984444724	0.63468752077336	1.2235551883459
237.694594663795	0.644912546120466	6.46868797681515	0.422128619902266	3.10918340328259	0.74703229826424	1.2368903164704	0.626864965600675	1.22768014908715
245.733542004443	0.635562481525334	6.38262722735654	0.410915933086349	3.20645683955712	0.742133248689472	1.23735292199575	0.619120112533884	1.23096038234377
253.77248934509	0.626630199248776	6.29889755136528	0.400045441004098	3.30105700763063	0.737405205076694	1.2373610641002	0.611477211658397	1.23349440665344
262.87557181828	0.616964656632318	6.20677975162792	0.388154235040185	3.40506601333191	0.732233352957272	1.23688100751364	0.602959713302452	1.23556007547465
271.97865429147	0.607716736296414	6.11740059630409	0.376710865156516	3.5058885385394	0.727226038477207	1.23593954402392	0.594598323059373	1.23686483728125
281.08173676466	0.598841727854027	6.03063773046585	0.365713266188108	3.60364900334605	0.722360727753086	1.2345903549791	0.58639952843007	1.2374923940184
290.184819237849	0.590287887929786	5.94637707154056	0.355145578827266	3.69847734963218	0.717627985400396	1.23288036663562	0.578378967937288	1.23753602382297
299.988760925423	0.58140766499122	5.85830298300131	0.344232130578007	3.79746488642069	0.712665574162085	1.23068265555487	0.569940654115661	1.23700248592386
309.792702612996	0.572840537519659	5.77287754833608	0.333790139190314	3.89333231247361	0.707825355390832	1.22816028063666	0.561708058837774	1.23593584567861
319.596644300569	0.564562942040424	5.68998051864307	0.323805060640949	3.98621442071599	0.703093232386474	1.22535369706203	0.55367780636027	1.2343958021785
329.400585988143	0.556547641689976	5.60949994726113	0.314244966723056	4.07625508601582	0.698472418689686	1.2222980571398	0.545855741405259	1.23245589117401
340.077352871803	0.548100360207196	5.5244787557692	0.304297118780476	4.17122412545033	0.693557795357324	1.21872356050025	0.537567794304517	1.22994083673044
350.754119755464	0.539927485598234	5.44206865868047	0.294812026162565	4.26311931515697	0.688751519821169	1.21492626943103	0.529511252630197	1.22705624416852
361.430886639125	0.532013263241363	5.36214850901906	0.285771367993694	4.35208012298725	0.684041332366854	1.21093759956236	0.521677644369789	1.22384504977656
372.107653522786	0.524340196347688	5.28460594351275	0.277133374360831	4.43826068212642	0.679439331808144	1.20678452046648	0.514066751728687	1.22036778322936
383.301385135762	0.516542271426849	5.205745511552	0.268491201554775	4.52576328689323	0.674721761518879	1.20228007440816	0.506317483575415	1.2164703312841
394.495116748738	0.508983564409255	5.12926591866282	0.260252427896686	4.6104816534405	0.670101725251111	1.19764582978648	0.498792423396752	1.2123483400436
405.688848361713	0.501652413298695	5.05505858317893	0.252400689634231	4.69254072718684	0.665568152865214	1.19290339321302	0.491482447930264	1.20802936843618
416.882579974689	0.494536757672641	4.98302288287417	0.244895005611529	4.7720821115143	0.661136566995778	1.18807115210829	0.484382654412034	1.20355688886124
428.69796654773	0.487249208263725	4.90923671695212	0.237332359840367	4.85343092320752	0.656561116697324	1.18289139953481	0.477108077341108	1.19869164578724
440.513353120772	0.480180227964941	4.83765757469203	0.230121799519081	4.93222062578889	0.652077991223219	1.17764713655498	0.470047120076471	1.19369960101548
452.328739693813	0.473319843964091	4.7681857539273	0.223250039329671	5.00856420674304	0.647675781729081	1.17235346333221	0.463191274018265	1.18859849991425
464.144126266855	0.466658123882168	4.70072906159591	0.216677281784255	5.08259365661984	0.643373363044316	1.16702303224621	0.456532923683146	1.1834210119925
476.365581108537	0.459967346016968	4.63298050740686	0.210181972235442	5.1568375203577	0.639019039188986	1.16148295445444	0.449846421910328	1.17799855598322
488.587035950218	0.453470856603714	4.56720208700569	0.203980925028133	5.22881698796618	0.634749981450808	1.15592694415054	0.443353161161438	1.17252113271054
500.808490791899	0.447160192311673	4.5033072785495	0.198064209159545	5.29862851229096	0.630555203767697	1.15036478806819	0.437046236192628	1.16699937581139
513.029945633581	0.441027054688249	4.44121610406218	0.192396771194011	5.36638712474381	0.62645420957977	1.14480454790377	0.430916564532565	1.16145619417448
525.6939077735	0.434851175752653	4.37869764682452	0.186778685769463	5.43452366740602	0.622295008273057	1.13905287941145	0.424746367533633	1.15569767074408
538.357869913419	0.428850056286763	4.31795305271844	0.181408776935622	5.50063817034594	0.618215250927908	1.13331830096692	0.418751335798324	1.14993189095442
551.021832053338	0.423016314828868	4.25890630812047	0.176279848335925	5.56481384354361	0.614204079388286	1.12760704530287	0.412926050865163	1.14416493967101
563.685794193257	0.417342733862422	4.20148721368452	0.171360541338309	5.62715224497717	0.610281894349952	1.12192410087515	0.407260528426895	1.13841328225429
576.687418251399	0.411677610491532	4.14415950104966	0.166522356755853	5.68931814219449	0.606339084752164	1.1161239141895	0.401606033794763	1.1325284367294
589.689042309541	0.406167678363941	4.08840712537716	0.161890908764335	5.74970196585851	0.602469276659606	1.11036266882716	0.396107659045042	1.12666804324326
602.690666367683	0.400806603794787	4.03416469876021	0.157461149234986	5.80837415200481	0.598662132199772	1.10464404581198	0.390761371722781	1.12083518427826
615.692290425824	0.395588186578016	3.98137184239883	0.153205920350045	5.86542223725113	0.59493787636348	1.09897085814428	0.385556935964369	1.11504135027963
629.01110471459	0.39038445698072	3.92873305584279	0.14902382213406	5.92224312202315	0.591200505821118	1.09320910894461	0.380369652653265	1.10914859389673
642.329919003356	0.385318734943253	3.87749486669433	0.145014563791853	5.97749056951382	0.587530172327113	1.08750010860962	0.375321450909324	1.10330044433966
655.648733292122	0.3803855737008	3.82760097358217	0.141174709449068	6.03122431696877	0.583917068811539	1.08184582098364	0.37040944559179	1.09749807937026
668.967547580888	0.375579627567466	3.77899939632318	0.137480687573484	6.08351991610334	0.580381068371926	1.07624760656685	0.365623392980595	1.09174950712943
682.564325044573	0.370799522070669	3.73066414350093	0.133857319311959	6.13547853718712	0.576843022321107	1.07059171913198	0.360865368174333	1.08593694874453
696.161102508257	0.366141975534937	3.6835723163554	0.130378589989084	6.18604909365552	0.5733663494354	1.06499663454931	0.356230941981821	1.08018115307546
709.757879971941	0.36160231536083	3.63767557882105	0.127042248586549	6.2352821725924	0.569941834946751	1.0594631652474	0.351718153741219	1.07448210982103
723.354657435626	0.357175942721436	3.59292930409243	0.123827928954627	6.28324276695295	0.566588732813147	1.05399171104665	0.347316997439488	1.06884533266964
737.197737290718	0.352781412917488	3.54850942809659	0.120679021494321	6.3308115504091	0.563240935809463	1.04848523953614	0.342949525017982	1.06317001667556
751.04081714581	0.348495731883626	3.50519349613953	0.117651449672568	6.37715505418791	0.559949250085971	1.04304363264111	0.338691830156791	1.05755814218418
764.883897000903	0.344314893091756	3.462940039726	0.114743819525096	6.42231614074891	0.556705076669794	1.0376669480729	0.334542681067646	1.05200898345813
778.726976855995	0.340234942292138	3.42171076793504	0.111938564212854	6.46635066785211	0.553526870049973	1.03235496712371	0.330492455494042	1.04652627774146
792.795097426328	0.33618828682223	3.38082197394863	0.109191547757437	6.50998647829394	0.550357752058986	1.02702270392764	0.326477021817929	1.0410216003637
806.863217996661	0.332238468590358	3.34091494572369	0.106546727400788	6.55253832687553	0.547239948395481	1.02175670147069	0.322559216595215	1.03558339975922
820.931338566994	0.32838204578642	3.3019540442607	0.104003324924554	6.59404263081475	0.544165455180465	1.01655653583294	0.318738374579415	1.03021053966335
834.999459137327	0.324615612330027	3.26390635677042	0.101546160729598	6.63454748249999	0.541151867868715	1.01142160308492	0.315005329495504	1.02490550314577
849.272701259581	0.320883013352887	3.22620403069485	0.0991407427055985	6.67465522659956	0.538150230536257	1.00627786993168	0.311307292932132	1.01959121503663
863.545943381836	0.31723672467878	3.18937642199257	0.0968217467199111	6.71380183128753	0.535195545548974	1.001200008339	0.307696216164633	1.01434401432415
877.819185504091	0.313673783475395	3.15339284063641	0.0945888315091892	6.75201832785441	0.532280375946132	0.996187298250476	0.304171867806665	1.00916255048659
892.092427626346	0.310191250075582	3.11822493955244	0.0924288567635231	6.78934620368405	0.529421431884048	0.991238907902476	0.300725582650634	1.00404842068256
906.553312009023	0.306742162863432	3.08339796087864	0.0903146481403668	6.826287390981	0.526576338368019	0.986290234678469	0.297313630254372	0.998934370148895
921.0141963917	0.303370165282889	3.04935196423678	0.088273826171386	6.86237420959185	0.523774245268297	0.981405884262534	0.293979283899989	0.99388644016651
935.475080774377	0.300072700515454	3.01606045771331	0.0863063554085815	6.89763318687812	0.521008249170833	0.976584965787125	0.290722640392379	0.988903190920792
949.935965157055	0.296847225458622	2.98349896746305	0.084400835778137	6.93210019675882	0.518294173179334	0.971826524946991	0.287535553196447	0.983985594730485
964.570426947637	0.293653930339604	2.95126514797986	0.0825355237184204	6.96619932830173	0.515594899739386	0.967073627762538	0.284381286851709	0.979074410056809
979.204888738219	0.290529658035171	2.91973033266074	0.0807328028090558	6.9995368645302	0.512935059846779	0.962382791535809	0.281296441159747	0.97422739420398
993.839350528801	0.287472195473349	2.8888715857829	0.0789928485697361	7.03213556564737	0.510308244329772	0.957753038268163	0.278281358391592	0.969443095687058
1008.47381231938	0.284479336238	2.85866771513135	0.0773057413582574	7.0640265435104	0.5077294147497	0.953183360473646	0.275328406634724	0.964722048210361
1023.26944245968	0.281517115099057	2.82877553598242	0.0756539441821504	7.09557051983544	0.505165882273093	0.948623426132283	0.272406526750152	0.960011919622296
1038.06507259997	0.278616849675362	2.79951056800027	0.0740557623269689	7.12643366967277	0.50263856548143	0.944122875265003	0.269546897667802	0.955363417086306
1052.86070274027	0.275776618438677	2.77085289290646	0.0725115134101505	7.1566355936834	0.500141509882392	0.939680698039575	0.266750042102321	0.950775124567599
1067.65633288056	0.272994501291845	2.74278410356081	0.0710125393517294	7.18620335708747	0.497688853254382	0.935295878878576	0.264008828795972	0.946247269711473
1082.60170446745	0.270241421128265	2.71501047968213	0.0695446307781924	7.21544488953968	0.495251727945315	0.930923900526301	0.261296913416886	0.941733607898857
1097.54707605434	0.2675440912537	2.68780105043954	0.0681228413115001	7.24407610824897	0.49284791355798	0.926608412279634	0.258640956091101	0.937278701691104
1112.49244764123	0.264900838103714	2.66113846489998	0.0667475806183874	7.27211395448164	0.490471873165967	0.922348408490421	0.256041609040332	0.932881197992109
1127.43781922812	0.262309985730226	2.63500668601422	0.0654112691643715	7.29958204482141	0.488136961734428	0.918142894206079	0.253492221821874	0.928541112755754
1142.52282177191	0.25974649009737	2.60915279558661	0.0641023075439556	7.32674489686944	0.48581755415844	0.91395234810449	0.250970310824344	0.924217432107053
1157.60782431569	0.257233285898863	2.58380768501604	0.062833179460543	7.35335913552342	0.483528834705929	0.909815321289936	0.248498826020075	0.919949489566604
1172.69282685948	0.254768910960006	2.55895619269983	0.0616043506393984	7.37943945666078	0.481265648963565	0.905730835095232	0.246078509714285	0.915736009627805
1187.77782940326	0.252351897981772	2.53458430311811	0.0604091655394461	7.40500653134245	0.47904061291897	0.901697932750112	0.243703167644295	0.911576863938984
1202.99350324545	0.249960548926969	2.51047294128609	0.0592380862823961	7.43028897243152	0.476830865683996	0.897681391130655	0.241353494711631	0.907435537517723
1218.20917708763	0.247614679372333	2.48682152939643	0.0581015488454041	7.45507692175817	0.474649436663768	0.893715412692565	0.239049375708561	0.903346904722888
1233.42485092982	0.245313007818454	2.46361677753808	0.0570000493176466	7.47938317314428	0.472491521095914	0.889799059557669	0.236791612596076	0.899309774043579
1248.640524772	0.243054245716235	2.44084639878787	0.0559277256023938	7.50322587560974	0.470369041446754	0.885931423184782	0.2345744403857	0.895323921022507
1263.97862729874	0.24081952800782	2.41831996464998	0.0548766991095996	7.52680333624042	0.468261543051597	0.882081057974428	0.23238122603066	0.891356781238966
1279.31672982548	0.238626037301862	2.39621034302755	0.0538557403347677	7.54993391663769	0.46618021847389	0.878278372612757	0.230229263668993	0.887439340000156
1294.65483235221	0.236472647009332	2.37450584913898	0.0528653574437252	7.5726287934173	0.464120582565534	0.874522477793465	0.228119391388412	0.883570491072414
1309.99293487895	0.234358222185941	2.35319567875318	0.0519003719403356	7.59490394930649	0.462093908560179	0.870812518285723	0.226046246352426	0.87974994833705
1325.44584967537	0.232266308843732	2.33211377714241	0.0509542490017213	7.61693197385588	0.460081845702956	0.867120376387663	0.223995453427078	0.875948624148933
1340.8987644718	0.230211854787101	2.31141048175367	0.0500343952037199	7.63855512304261	0.458094013483474	0.863473140075741	0.221982104603727	0.872194101125576
1356.35167926822	0.228193866666246	2.29107548864889	0.0491413179276172	7.6597831934235	0.456126219170528	0.85986997235981	0.220007056033027	0.868485356451091
1371.80459406465	0.226211341939801	2.27109926932503	0.0482704295701637	7.68063030110481	0.454189128777601	0.856310073124058	0.21806532024913	0.864822066892254
1387.36539549354	0.224249870950733	2.25133643063692	0.0474162821413215	7.70124728722176	0.452266221790807	0.852768231881698	0.216144422084606	0.861178179120723
1402.92619692243	0.222322513171023	2.23191827920416	0.0465851662144305	7.72149655458142	0.450365782231585	0.849268653073056	0.214257589590994	0.857578322673778
1418.48699835133	0.220428390186925	2.2128357024406	0.0457775795459454	7.74138671801346	0.448483885041611	0.845810553072528	0.212405683281174	0.854021554416283
1434.04779978022	0.218566613908935	2.19408027268062	0.0449894467291955	7.76093028059019	0.446630629001966	0.842393186540661	0.210584064876428	0.850507531425194
1449.71016329954	0.216724517256424	2.17552420462509	0.0442162042869164	7.78025959108799	0.444791093323732	0.838993891355018	0.208781866538252	0.847012857365228
1465.37252681887	0.214913555130132	2.1572826392352	0.0434632232870122	7.79925413747779	0.442972422793613	0.835634357955202	0.207010729354711	0.843559588667044
1481.03489033819	0.213132948556275	2.13934749480265	0.0427309859484438	7.81792151924891	0.441170937525196	0.832313855379411	0.205271507885584	0.84014685711552
1496.69725385752	0.211381908663568	2.1217112963608	0.042015862111418	7.83627284152778	0.439396206962387	0.829031691378533	0.203559887971193	0.836774312391042
