Time	Input1	Input2	sp_2	Signal
0	10	10	0	0
6	8.36693613247747	9.98492716740491	0.0141895169427364	0.000883315652414503
12	7.02722815479373	9.9438244253399	0.0497971366683868	0.00637843799152763
18	5.9277971069348	9.88217702287121	0.0982729020081868	0.0195500751197624
24	5.02522830599043	9.80454484159369	0.153342957673644	0.0421122007306535
30	4.28371731384958	9.71471237229476	0.210453501395894	0.0748341263057213
36	3.67372376957398	9.61579278488564	0.266371977181026	0.117835237927014
42	3.17140681078853	9.51028092410153	0.319025255639851	0.170693820248374
48	2.75765486936659	9.40014811001492	0.367238246201126	0.232613643771643
54	2.41620216248396	9.2870319139022	0.41022460768331	0.302743478431584
60	2.13421735164246	9.17218892446184	0.447765353767869	0.380045721845625
66	1.90038425103867	9.05668560679889	0.479698647372511	0.463615745948062
72	1.70696906651654	8.94119974677368	0.506487086957727	0.552313166403239
78	1.54537604748969	8.82649078283849	0.528094710278163	0.645414507017351
84	1.41222018489334	8.71275951414631	0.545533887576548	0.741706598406621
90	1.30081252084296	8.60054665004655	0.558779632656458	0.840673717453534
96	1.20879512373326	8.4899423466999	0.568645441114116	0.941412212473945
102	1.13221170701496	8.38121499375357	0.575382669737265	1.04340233693321
108	1.06810115270008	8.2745369359892	0.579296166339628	1.14616689821284
114	1.01427011635757	8.16998970559733	0.580771516333237	1.24923877870119
120	0.968487398169762	8.06766905548276	0.580064160514689	1.35226678466583
126	0.928935795199421	7.967638596513	0.57740902797231	1.45495237613377
132	0.894770610943427	7.86986263326188	0.573184847370846	1.55695251991329
138	0.864882887831465	7.77434108915819	0.567640898161465	1.65801801314912
144	0.83864519535565	7.68102215109523	0.561033482017951	1.75794436727623
150	0.815719257375485	7.58983411801275	0.55366152606964	1.85650435628077
156	0.79546868853365	7.50074001170407	0.545655845933312	1.95360414272532
162	0.777577357124769	7.41367403040799	0.537198941054659	2.04912702892523
168	0.761711679185635	7.32858044978691	0.528415104699708	2.14300444595024
174	0.74739398311058	7.24542329885824	0.519362127419438	2.23521457419688
180	0.734349862278791	7.16415080351662	0.510117898242866	2.32573129873281
186	0.722366651977846	7.08471063126491	0.500754967069941	2.41453440215941
192	0.711167479904756	7.00706149860118	0.491311653799246	2.50162684807329
198	0.700708581523641	6.93113891663844	0.481861292762108	2.58699979104205
204	0.690902307012503	6.85688880957032	0.472464998981719	2.67064619186917
210	0.681642475590552	6.78425945584601	0.463147523476473	2.75259302107795
216	0.672943549570189	6.7131893366404	0.453970513975499	2.83284014978179
222	0.664536358232654	6.64365467724129	0.444903600922228	2.91144172222114
228	0.656489784347628	6.57559268347297	0.435995629816963	2.98841168708228
234	0.648842968876735	6.50894727638062	0.427276175707342	3.0637765482748
240	0.641608171303535	6.44366762254401	0.418764837303332	3.13756754051085
246	0.634452413299065	6.37974302409753	0.410421856754969	3.20983511949837
252	0.627584649603029	6.31710568991326	0.402285728647551	3.28060858178814
258	0.621060336664555	6.25570695087106	0.394365331706366	3.34992771777913
264	0.614848519822801	6.19551041395876	0.386658775669285	3.41783081074407
270	0.608711982500956	6.13650563202512	0.379143724323626	3.4843506440326
276	0.60279265393737	6.07864133427439	0.37182466234754	3.54953400377
282	0.597099335962256	6.02188385431216	0.364691533476364	3.61342461261459
288	0.591589187515236	5.96620312464275	0.357742985851818	3.67605388991884
294	0.586183797612112	5.91157213955505	0.350983085171555	3.73744477569414
300	0.580906496112817	5.85796236657596	0.344393235245802	3.79764439860222
306	0.575738366211556	5.80534855813522	0.337961622804841	3.85668981948124
312	0.570673594944859	5.75370044143843	0.331693770557387	3.91460578841958
318	0.565705804933461	5.70298977372646	0.325592992967137	3.97141723371506
324	0.560817735693486	5.6531956685596	0.319645641573846	4.02715869026613
330	0.555998761765543	5.60429555333795	0.313846154141993	4.08185829290894
336	0.551294724733074	5.55626880487829	0.308204268453027	4.13552692704689
342	0.546692777522235	5.50909029089987	0.302714510644432	4.18819519882353
348	0.542168541182462	5.46273550718881	0.297367996932304	4.23989649623688
354	0.537713792363515	5.41718055946141	0.292160206460586	4.29065923442722
360	0.533320307715154	5.37240155343396	0.287086618373223	4.34051182853482
366	0.52897986388714	5.32837459482276	0.282142711814158	4.38948269369997
372	0.524684237529231	5.28507578934411	0.277323965927334	4.43760024506294
378	0.520494311462728	5.24252961132507	0.272632441635261	4.48483794736781
384	0.516377577270643	5.20069516894155	0.268061305134598	4.53124352624492
390	0.512319277841602	5.15954399481685	0.263605413283782	4.57685059221371
396	0.508315577610643	5.11905526575446	0.259260663126206	4.62168407142739
402	0.504362641012802	5.07920815855788	0.255022951705264	4.66576889003915
408	0.500456632483119	5.03998185003057	0.25088817606435	4.7091299742022
414	0.49659371645663	5.00135551697604	0.246852233246857	4.75179225006975
420	0.492819094790453	4.96337761576556	0.242923054467206	4.79369933005415
426	0.489103162572181	4.92599091653243	0.239090212767218	4.83491887098143
432	0.4854425833331	4.88917530119818	0.23534972767245	4.87547497140456
438	0.481836211042252	4.85291374631242	0.231698156259202	4.91538809769761
444	0.478282899668684	4.81718922842474	0.228132055603775	4.95467871623465
450	0.474781503181439	4.78198472408472	0.22464798278247	4.99336729338978
456	0.471331248694192	4.74728663626156	0.221243040253599	5.03147032373548
462	0.467938093218859	4.71314316555835	0.217924166783347	5.06893266790303
468	0.46459655458867	4.67949747173636	0.214681581823683	5.1058209466788
474	0.461305881850695	4.64633615916933	0.211512419890412	5.14215142117327
480	0.458065324052006	4.61364583223096	0.208413815499335	5.17794035249692
486	0.454874130239671	4.58141309529498	0.205382903166257	5.21320400176023
492	0.451731549460762	4.54962455273511	0.20241681740698	5.24795863007367
498	0.448636062383041	4.51827475847473	0.199514300963004	5.28221094077237
504	0.445582751725041	4.4873934211659	0.196681208518059	5.31592537052044
510	0.442573580997366	4.45693906170534	0.193908993188216	5.34915194530516
516	0.43960752374649	4.42690113475913	0.191195366114822	5.3819034993191
522	0.436683553518885	4.39726909499334	0.188538038439229	5.41419286675482
528	0.433800643861027	4.36803239707407	0.185934721302785	5.4460328818049
534	0.430957768319388	4.33918049566739	0.183383125846839	5.4774363786619
540	0.428153783072697	4.31071247888635	0.180883614491232	5.50840390679293
546	0.425387360700658	4.28264250449949	0.178440697065717	5.53891679859972
552	0.422657689954382	4.25494236335509	0.176047223346821	5.56901041345745
558	0.419963719517332	4.22760355085445	0.173701466118824	5.59869498318054
564	0.417304398072971	4.20061756239887	0.171401698166007	5.62798073958341
570	0.414678674304763	4.17397589338965	0.169146192272651	5.65687791448047
576	0.412085496896172	4.1476700392281	0.166933221223039	5.68539673968614
582	0.409525987088333	4.12170397971685	0.164764548861462	5.71353147155371
588	0.407001964508637	4.0960857078704	0.162643061261722	5.74127123099516
594	0.40450999286183	4.0707930140309	0.160563198810952	5.76864378728098
600	0.402049338356473	4.04581921822818	0.158523744521163	5.79565703736934
606	0.399619266513086	4.02115763653835	0.156523480298761	5.82231888327778
612	0.39721904216415	3.99680158108373	0.154561186944549	5.8486372320832
618	0.394847929454104	3.97274436003288	0.152635644153723	5.87461999592187
624	0.392505191839345	3.9489792776006	0.150745630515873	5.90027509198943
630	0.390190092088232	3.92549963404794	0.148889923514985	5.92561044254088
636	0.387901892281083	3.90229872568218	0.147067299529441	5.95063397489059
642	0.385639853810174	3.87936984485684	0.145276533832015	5.9753536214123
648	0.383403237379741	3.85670627997167	0.143516400589878	5.99977731953912
654	0.381194665141531	3.83432582366415	0.1417920713569	6.02388210507891
660	0.379013053558133	3.81221925711772	0.140101665580343	6.0476790774011
666	0.376856448292612	3.79037101490914	0.13844164568956	6.07118733949988
672	0.374724333745973	3.76877602031618	0.136811212385079	6.09441276739694
678	0.372616204062123	3.74742926869889	0.135209585112991	6.11736114628612
684	0.370531563127876	3.72632582749965	0.13363600206495	6.14003817053334
690	0.368469924572948	3.70546083624315	0.13208972017817	6.16244944367667
696	0.366430811769959	3.68482950653639	0.130570015135432	6.1846004784263
702	0.364413757834433	3.66442712206867	0.129076181365076	6.20649669666455
708	0.362418305624797	3.64424903861162	0.127607532041007	6.22814342944586
714	0.360444007742383	3.62429068401917	0.126163399082693	6.24954591699677
720	0.358490426531425	3.60454755822755	0.124743133155162	6.27070930871598
726	0.356559577070742	3.58503266127159	0.123348229516301	6.29161910931145
732	0.354649521756671	3.56573079779021	0.121976754138461	6.31229244817143
738	0.352759831838973	3.54663753898336	0.120628096238491	6.33273436487904
744	0.350890220205362	3.52774946905713	0.119301778551496	6.35294875249308
750	0.349040415056748	3.50906328403771	0.11799734740531	6.37293936865949
756	0.347210159907237	3.49057579177143	0.116714372720499	6.39270983561135
762	0.345399213584134	3.47228391192477	0.11545244801036	6.41226364016887
768	0.343607350227938	3.45418467598431	0.11421119038092	6.43160413373942
774	0.341834359292346	3.43627522725676	0.11299024053094	6.45073453231748
780	0.340080045544252	3.41855282086897	0.111789262751911	6.46965791648471
786	0.338344229063746	3.40101482376791	0.110607944928054	6.48837723140987
792	0.33662629702834	3.38365745994544	0.109445455206523	6.50689708495406
798	0.334924545192196	3.36647396691647	0.108299643734661	6.52522638945544
804	0.333240114157123	3.34946561526734	0.107171814230829	6.54336257060892
810	0.331572790389117	3.3326299536467	0.106061633951984	6.56130841250888
816	0.329922370753365	3.31596462876665	0.104968787791025	6.57906658355032
822	0.328288662514244	3.2994673854027	0.103892978276796	6.59663963642887
828	0.326671483335323	3.28313606639379	0.102833925574086	6.61403000814082
834	0.325070661279363	3.26696861264227	0.10179136748363	6.63124001998307
840	0.323486034808315	3.25096306311393	0.100765059442106	6.64827187755316
846	0.321917452783322	3.23511755483797	0.0997547745221382	6.66512767074926
852	0.320364774464718	3.21943032290701	0.0987603034322946	6.68180937377018
858	0.318827869512028	3.20389970047709	0.0977814545170886	6.69831884511536
864	0.317305408613311	3.18851694147826	0.0968166141492174	6.71466644448208
870	0.315796675120969	3.1732769721856	0.0958649032602788	6.7308581246637
876	0.314302522872302	3.15818407562649	0.0949273175089227	6.74688860697416
882	0.312822752964395	3.14323632344541	0.0940036046523879	6.76276007201173
888	0.311357171267705	3.12843185196256	0.0930935233870109	6.77847462475988
894	0.309905588426063	3.11376886217386	0.0921968433482266	6.79403429458728
900	0.308467819856674	3.09924561975092	0.0913133451105677	6.80944103524778
906	0.30704368575012	3.08486045504108	0.0904428201876648	6.82469672488043
912	0.305633011070352	3.07061176306739	0.0895850710322467	6.83980316600945
918	0.304235625554699	3.05649800352858	0.0887399110361402	6.85476208554427
924	0.302851363713862	3.04251770079915	0.0879071645302698	6.86957513477952
930	0.301480064831918	3.02866944392925	0.0870866667846584	6.884243889395
936	0.300120895489305	3.01494095834384	0.0862764430439951	6.89878259872089
942	0.298773948150295	3.00133489246662	0.085477005309482	6.91318810233234
948	0.297439219958026	2.98785234478446	0.0846886074812388	6.92745904784246
954	0.296116537269686	2.97449164653338	0.0839110425193236	6.94159731105513
960	0.29480573029081	2.96125117870361	0.0831441118365389	6.95560470956735
966	0.293506633136187	2.94812937302207	0.0823876254621584	6.96948300162292
972	0.292219083890777	2.93512471293505	0.0816414022056531	6.98323388496608
978	0.290942924670625	2.92223573459072	0.0809052698204179	6.99685899569527
984	0.289678001683772	2.90946102782176	0.080179065167498	7.01035990711677
990	0.288424165291167	2.89679923712794	0.0794626343793151	7.0237381285984
996	0.287181270067586	2.88424906265868	0.0787558330233939	7.03699510442322
1002	0.285949174862539	2.87180926119564	0.0780585262660887	7.05013221264321
1008	0.284727742861185	2.85947864713534	0.0773705890363093	7.06315076393295
1014	0.28351684164525	2.84725609347171	0.0766919061892481	7.07605200044333
1020	0.282316343253932	2.83514053277866	0.0760223726701059	7.08883709465525
1026	0.281126124244821	2.82313095819272	0.0753618936778182	7.10150714823324
1032	0.27994606575481	2.81122642439557	0.0747103848287825	7.11406319087924
1038	0.278776053561005	2.79942604859665	0.0740677723205835	7.12650617918623
1044	0.277615978141646	2.78772901151574	0.0734339930957205	7.13883699549194
1050	0.276465114861794	2.77611849471263	0.0728066170289568	7.15107488836155
1056	0.27532358283627	2.76459948545125	0.0721864433733968	7.16321407127811
1062	0.274191472497999	2.75317616761929	0.0715741538526554	7.17524967863044
1068	0.273068671011908	2.74184739684969	0.0709696428405824	7.18718296041174
1074	0.271955069367668	2.7306120665951	0.0703728117441817	7.19901512176236
1080	0.270850562420579	2.71946910859143	0.0697835690905144	7.21074732241932
1086	0.26975504893246	2.70841749332154	0.0692018306136031	7.22238067616577
1092	0.268668431612536	2.69745623047881	0.0686275193413349	7.23391625028042
1098	0.267590617158323	2.68658436943085	0.0680605656823652	7.24535506498701
1104	0.266521516296519	2.67580099968306	0.0675009075130218	7.25669809290382
1110	0.265461043823892	2.66510525134231	0.0669484902642079	7.26794625849307
1116	0.264409118648164	2.65449629558057	0.0664032670083063	7.27910043751043
1122	0.263365663828901	2.64397334509852	0.0658651985460824	7.29016145645444
1128	0.2623306066184	2.63353565458919	0.0653342534935887	7.30113009201603
1134	0.261303878502578	2.6231825212016	0.0648104083690677	7.31200707052793
1140	0.260285415241858	2.61291328500442	0.0642936476798558	7.32279306741415
1146	0.259275156912055	2.60272732944953	0.0637839640092871	7.33348870663948
1152	0.25827304794527	2.59262408183572	0.0632813581035968	7.34409456015888
1158	0.257279037170769	2.58260301377232	0.062785838958825	7.35461114736702
1164	0.25629193786636	2.57265157619317	0.0622935880693601	7.36505483583549
1170	0.255312013576815	2.56277256723737	0.0618056601428005	7.37542177271765
1176	0.254339654989116	2.55297012855927	0.061323530997222	7.38570634054114
1182	0.253374786404682	2.54324346356517	0.0608471004073878	7.39590943612489
1188	0.252417334341049	2.53359179704246	0.0603762688056794	7.40603193424915
1194	0.251467227516259	2.52401437502526	0.0599109371789017	7.41607468789297
1200	0.250524396833252	2.51451046466013	0.0594510069650881	7.42603852847176
1206	0.249588775364259	2.50507935407177	0.0589963799503059	7.43592426607476
1212	0.248660298335193	2.49572035222867	0.0585469581654611	7.44573268970258
1218	0.24773890311004	2.48643278880884	0.0581026437831041	7.45546456750465
1224	0.246824529175249	2.47721601406546	0.0576633390142345	7.46512064701679
1230	0.245917118124126	2.4680693986926	0.0572289460051066	7.47470165539869
1236	0.245016613641224	2.45899233369087	0.0567993667340343	7.4842082996714
1242	0.244122961486735	2.44998423023317	0.0563745029081966	7.49364126695487
1248	0.24323610948088	2.44104451953028	0.0559542558604426	7.50300122470545
1254	0.242356007488302	2.43217265269666	0.0555385264460968	7.51228882095337
1260	0.241482607402458	2.42336810061603	0.0551272149397642	7.52150468454029
1266	0.240615863130008	2.41463035380715	0.0547202209321357	7.53064942535678
1272	0.239755730575209	2.40595892228945	0.0543174432267929	7.53972363457981
1278	0.23890134715102	2.39734633141918	0.0539198885418432	7.54873378013501
1284	0.238052806215445	2.38879326949257	0.0535272733750894	7.55767945722836
1290	0.237210446610438	2.38030252284218	0.0531389840117841	7.56655849324203
1296	0.236374199571919	2.37187340068597	0.0527549589998678	7.57537164041015
1302	0.235543996413252	2.36350521534576	0.0523751380736592	7.58411964667657
1308	0.234719768464412	2.35519728172676	0.0519994621117852	7.59280325625743
1314	0.233901447011141	2.34694891679723	0.0516278730951098	7.60142321020364
1320	0.233088963234115	2.33875943906801	0.051260314064664	7.60998024696332
1326	0.232282248148102	2.33062816807209	0.0508967290795754	7.61847510294434
1332	0.231481232541126	2.32255442384424	0.0505370631749973	7.62690851307678
1338	0.230685846913628	2.31453752640054	0.0501812623200389	7.63528121137544
1344	0.229896021417626	2.30657679521802	0.049829273375694	7.64359393150233
1350	0.229111685795881	2.29867154871417	0.0494810440527713	7.65184740732912
1356	0.228332769321054	2.29082110372657	0.0491365228698232	7.66004237349968
1362	0.22755920073487	2.28302477499246	0.0487956591110759	7.66817956599255
1368	0.226790908187282	2.27528187462833	0.0484584027843588	7.67625972268341
1374	0.226027819175628	2.26759171160947	0.0481247045790337	7.68428358390761
1380	0.225269860483795	2.25995359124958	0.0477945158239246	7.69225189302261
1386	0.224516958121384	2.25236681468035	0.0474677884452472	7.70016539697053
1392	0.223769453884182	2.24483391788729	0.0471446049233356	7.70802147728551
1398	0.223027254918225	2.23735405885848	0.0468249129071146	7.71582102833057
1404	0.222290053511911	2.22992472659254	0.046508593772981	7.72356667973067
1410	0.22155778966976	2.2225453379238	0.0461956069391066	7.7312590552333
1416	0.220830403322331	2.21521531071342	0.0458859125241425	7.73889877685867
1422	0.22010783429007	2.20793406352086	0.0455794713128533	7.74648646526254
1428	0.219390022247162	2.20070101527553	0.04527624472175	7.75402274009899
1434	0.218676906685382	2.19351558494831	0.0449761947647235	7.76150822038326
1440	0.217968426877949	2.1863771912231	0.0446792840186786	7.76894352485453
1446	0.217264521843373	2.17928525216842	0.0443854755891667	7.77632927233873
1452	0.21656513030931	2.17223918490897	0.0440947330760201	7.78366608211134
1458	0.215870190676414	2.16523840529714	0.0438070205389846	7.79095457426022
1464	0.215179640982184	2.15828232758464	0.0435223024633539	7.79819537004836
1470	0.21449341886482	2.15137036409402	0.0432405437256023	7.80538909227674
1476	0.213811461527073	2.14450192489025	0.0429617095590186	7.8125363656471
1482	0.213133705700096	2.13767641745229	0.0426857655193394	7.81963781712475
1488	0.212460087607294	2.13089324634462	0.0424126774503826	7.82669407630138
1494	0.211790542928179	2.12415181288883	0.0421424114496811	7.83370577575787
1500	0.211125006762221	2.1174515148352	0.0418749338341159	7.84067355142707
1506	0.21046439659042	2.11079935069465	0.041610041615693	7.84759060778603
1512	0.209808695654166	2.1041950923383	0.0413476929274702	7.85445721483059
1518	0.209157156414874	2.09763285895172	0.0410879719021598	7.86127916924245
1524	0.208509737506967	2.09111223353227	0.040830840870065	7.86805692569396
1530	0.207866397423602	2.08463279865652	0.0405762621021864	7.87479093933756
1536	0.207227094466834	2.07819413604592	0.0403241977782151	7.88148166627209
1542	0.206591786697784	2.07179582613249	0.0400746099545257	7.88812956400918
1548	0.205960431886798	2.06543744762449	0.0398274605321705	7.89473509193949
1554	0.205332987463617	2.05911857707211	0.039582711224872	7.90129871179911
1560	0.204709410467539	2.05283878843316	0.039340323527017	7.90782088813586
1566	0.204089657497583	2.04659765263872	0.0391002586816494	7.91430208877561
1572	0.203473684662658	2.04039473715884	0.0388624776484638	7.92074278528863
1578	0.20286144753172	2.0342296055682	0.0386269410717989	7.92714345345587
1584	0.202252901083945	2.02810181711183	0.0383936092486309	7.93350457373535
1590	0.201647999658889	2.02201092627074	0.0381624420965667	7.93982663172844
1596	0.201046696906654	2.01595648232762	0.0379333991218374	7.94611011864622
1602	0.20044894573805	2.00993802893255	0.0377064393872916	7.95235553177577
1608	0.199854698274766	2.00395510366862	0.0374815214803889	7.95856337494655
