Time	Signal
0	0
599.999994	0
600	0
605.840287056475	0.000489541542638376
611.976572080659	0.00382818749637264
618.487752981414	0.0127090046549682
624.528513579836	0.0270203528379478
631.243058593941	0.0503776135899632
637.154270843923	0.077485355755934
643.51800833011	0.113255832706866
650.437299895532	0.15933644328837
658.169455023566	0.21872992764251
664.254812201833	0.270565874094947
670.9301923892	0.331802135794048
677.643926153662	0.397245445840836
684.49395613613	0.467235106260328
691.578224977517	0.542277786894683
698.786444423855	0.620684468414508
706.184934077105	0.702629082238668
713.747016931756	0.787294536196609
721.446015982301	0.87387367459942
729.456225794676	0.963846829880605
737.66969356744	1.05553666041603
746.115477577337	1.14882849576498
754.822636101108	1.24362228942095
760.912945921383	1.3089493960414
767.003255741657	1.37339198783348
773.438093542244	1.44046026530783
779.87293134283	1.50643433096908
786.698406694295	1.57517987134283
793.523882045761	1.64262954541958
800.810091439832	1.71318559565165
808.096300833904	1.78224224685923
815.913952188335	1.85467328386425
823.731603542765	1.92539863894422
832.17435752677	1.99989090889651
840.617111510776	2.07245931257941
849.791968617368	2.14919040146286
858.96682572396	2.22376327943726
869.011408203977	2.30300809265646
879.055990683995	2.3798332314518
890.139381580292	2.46190310020696
901.222772476588	2.54125489413047
907.393932139288	2.58430281594814
913.565091801989	2.62656399702645
919.736251464689	2.66805757421618
925.907411127389	2.70880279686811
932.367975999591	2.75067690085032
938.828540871792	2.79177137621884
945.289105743994	2.83210609206113
951.749670616195	2.87170103682785
958.261405578941	2.91087998606477
964.773140541687	2.94934516367624
971.284875504432	2.98711463907
977.796610467178	3.02420658285695
984.469858282814	3.06153328773234
991.143106098451	3.09818401434402
997.816353914087	3.13417587753455
1004.48960172972	3.16952611304427
1011.22246966526	3.20455815024932
1017.95533760079	3.23896934947094
1024.68820553632	3.27277512189535
1031.42107347185	3.30599099984947
1038.27731322504	3.33922417215707
1045.13355297822	3.37187539144727
1051.9897927314	3.40395891439551
1058.84603248459	3.43548913375137
1065.77947541781	3.46682527398835
1072.71291835103	3.4976226392185
1079.64636128425	3.52789415594978
1086.57980421748	3.55765289013742
1093.62452769699	3.5873764741126
1100.66925117651	3.61659553773631
1107.71397465602	3.64532198766987
1114.75869813554	3.67356787892633
1121.89240891914	3.70169224158274
1129.02611970274	3.72934655697082
1136.15983048634	3.75654170385131
1143.29354126994	3.78328871178075
1150.53361201364	3.80998674547372
1157.77368275734	3.83624409183655
1165.01375350105	3.86207077907849
1172.25382424475	3.88747699048776
1179.58894318791	3.91279755853636
1186.92406213107	3.93770575981861
1194.25918107423	3.96221081013742
1201.59430001739	3.98632208104526
1209.03306052991	4.010380729929
1216.47182104243	4.03405212706873
1223.91058155495	4.05734478513844
1231.34934206748	4.08026737362715
1238.88580893123	4.10312183231045
1246.42227579498	4.12561279962967
1253.95874265873	4.1477481323088
1261.49520952248	4.169535842901
1269.13354321403	4.19127090949987
1276.77187690559	4.21266403103892
1284.41021059714	4.23372248189236
1292.0485442887	4.25445369117112
1299.78916851291	4.27513569180684
1307.52979273713	4.29549565732233
1315.27041696135	4.31554033356472
1323.01104118557	4.33527661939703
1330.94870144912	4.35520167675157
1338.88636171267	4.37481585948091
1346.82402197623	4.39412565522477
1354.76168223978	4.41313771669273
1362.85245536227	4.43221643369808
1370.94322848476	4.45099853563404
1379.03400160725	4.46949015584896
1387.12477472974	4.48769759681651
1395.41891006584	4.50607375187299
1403.71304540195	4.52416346659312
1412.00718073805	4.5419726434593
1420.30131607416	4.55950736492743
1428.77644217624	4.57714700697401
1437.25156827832	4.59451174103736
1445.72669438041	4.61160719655746
1454.20182048249	4.62843918916906
1462.88627694899	4.64541917224302
1471.57073341548	4.66213371931989
1480.25518988197	4.67858824779015
1488.93964634847	4.69478837086155
1497.82329004492	4.71110216620977
1506.70693374138	4.72716049175361
1515.59057743783	4.74296853703401
1524.47422113429	4.75853169430951
1533.57446576069	4.77422551741909
1542.6747103871	4.78967269522081
1551.7749550135	4.80487822248882
1560.8751996399	4.81984730529093
1570.18888902094	4.83492758063378
1579.50257840198	4.84977011468886
1588.81626778302	4.86437970421043
1598.12995716405	4.87876136418482
1607.66908225624	4.89325959402181
1617.20820734843	4.9075282805696
1626.74733244061	4.92157204258217
1636.2864575328	4.93539572476897
1646.05195733839	4.94932404230267
1655.81745714398	4.96303090367033
1665.58295694958	4.9765207521011
1675.34845675517	4.98979826348585
1685.3497311452	5.00318064443409
1695.35100553524	5.01634916843607
1705.35227992527	5.02930811676444
1715.35355431531	5.04206201038482
1725.59407200892	5.05491275349883
1735.83458970254	5.06755704785721
1746.07510739616	5.07999901767021
1756.31562508977	5.09224303321312
1766.80369771618	5.1045819259923
1777.29177034258	5.116721407629
1787.77984296899	5.12866545542427
1798.26791559539	5.14041829920652
1809.00871821161	5.15226011508308
1819.74952082782	5.16390933957988
1830.49032344404	5.17536980882042
1841.23112606026	5.18664561746857
1852.23271555356	5.19800756174513
1863.23430504685	5.20918343300469
1874.23589454015	5.22017693437231
1885.23748403345	5.23099203349987
1896.50633432055	5.2418885766069
1907.77518460765	5.25260534564212
1919.04403489475	5.26314591656296
1930.31288518185	5.27351413551714
1941.85729387325	5.28396071052468
1953.40170256464	5.29423355429763
1964.94611125604	5.30433612254263
1976.49051994743	5.31427214673871
1988.31808920379	5.32428258870358
2000.14565846015	5.33412513279636
2011.97322771651	5.34380312007201
2023.80079697286	5.35332017269581
2035.92039286998	5.36290857870395
2048.03998876709	5.37233469692948
2060.1595846642	5.38160175980064
2072.27918056131	5.39071328609018
2084.69950316313	5.39989273829554
2097.11982576494	5.40891531810539
2109.54014836676	5.41778415455315
2121.96047096857	5.42650266805799
2134.69120490169	5.43528618397942
2147.4219388348	5.44391804551069
2160.15267276792	5.45240128362959
2172.88340670104	5.46073922563131
2185.93440913637	5.46913911901253
2198.9854115717	5.47739239769425
2212.03641400704	5.48550199941982
2225.08741644237	5.49347116302391
2238.46941266214	5.5014995388771
2251.85140888191	5.50938616402646
2265.23340510168	5.51713388775818
2278.61540132146	5.52474586511663
2292.33952919443	5.53241430022785
2306.0636570674	5.53994568680417
2319.78778494038	5.54734279008385
2333.51191281335	5.55460868559752
2347.59016170042	5.561928493055
2361.66841058749	5.56911579735027
2375.74665947456	5.57617328396982
2389.82490836163	5.58310395312597
2404.26987407499	5.59008602431212
2418.71483978834	5.59693999179043
2433.15980550169	5.60366846530903
2447.60477121504	5.61027437366162
2462.42995100889	5.61692932446052
2477.25513080274	5.6234604310987
2492.0803105966	5.62987023145696
2506.90549039045	5.63616158668862
2522.12516640163	5.64249968159622
2537.34484241282	5.64871806103593
2552.564518424	5.65481919466025
2567.78419443519	5.66080587952226
2583.41364986272	5.66683711608632
2599.04310529026	5.67275264131737
2614.6725607178	5.67855486012558
2630.30201614534	5.68424650886517
2646.35750084893	5.68998058366556
2662.41298555252	5.69560283458269
2678.46847025611	5.70111560506901
2694.52395495971	5.706521573978
2711.02286088054	5.71196793406735
2727.52176680138	5.7173062473047
2744.02067272222	5.72253879881295
2760.51957864306	5.72766821299693
2777.48046085286	5.73283604308426
2794.44134306265	5.73789950001501
2811.40222527244	5.74286081352678
2828.36310748224	5.74772255644467
2845.80584062593	5.75262081206849
2863.24857376963	5.7574182710271
2880.69130691332	5.76211711045772
2898.13404005701	5.76671985432394
2916.07987784408	5.7713572594344
2934.02571563114	5.77589735373806
2951.97155341821	5.78034226437916
2969.91739120527	5.78469446900362
2988.38911398156	5.78907953840105
3006.86083675785	5.79337069824489
3025.33255953414	5.7975700281267
3043.80428231042	5.8016799617604
3062.82627997768	5.80582100324578
3081.84827764494	5.80987145814152
3100.87027531219	5.8138333607432
3119.89227297945	5.81770910304138
3139.49068157562	5.82161423287498
3159.08909017179	5.82543202686655
3178.68749876797	5.82916447608658
3198.28590736414	5.83281393283715
3218.4886933949	5.83649107911353
3238.69147942566	5.8400840744457
3258.89426545642	5.84359486854263
3279.09705148718	5.84702577585831
3299.9341160969	5.85048268869175
3320.77118070662	5.85385857603791
3341.60824531633	5.85715534788299
3362.44530992605	5.86037528246859
3383.94853065675	5.86361953647434
3405.45175138744	5.86678583785783
3426.95497211813	5.86987605826141
3448.45819284883	5.87289244111584
3470.661436499	5.87593144091712
3492.86468014916	5.87889551560459
3515.06792379933	5.88178649955583
3537.2711674495	5.88460660253
3560.210194598	5.88744758292226
3583.1492217465	5.8902166283321
3606.088248895	5.89291553659081
3629.0272760435	5.89554648461548
3652.73952768791	5.89819651161036
3676.45177933232	5.90077756520787
3700.16403097672	5.90329140697414
3723.87628262113	5.90574018144919
3748.40044756115	5.9082061495854
3772.92461250117	5.91060608741701
3797.44877744119	5.91294171998352
3821.97294238121	5.91521515947079
3847.34823545534	5.91750378945688
3872.72352852948	5.91972932523873
3898.09882160361	5.92189345439088
3923.47411467775	5.92399825623175
3949.73911236228	5.92611609130107
3976.00411004681	5.92817377456755
4002.26910773134	5.93017295435297
4028.53410541587	5.93211567593793
4055.72498826068	5.93406908103011
4082.9158711055	5.93596529826684
4110.10675395031	5.93780593386967
4137.29763679512	5.9395929971127
4165.44562411945	5.94138816315172
4193.59361144378	5.94312914402931
4221.7415987681	5.9448174997154
4249.88958609243	5.94645520055004
4279.01737576809	5.94809816103289
4308.14516544375	5.94968999641895
4337.27295511941	5.95123221471636
4366.40074479507	5.95272674328572
4396.51782967561	5.95422341181212
4426.63491455615	5.95567209137152
4456.75199943668	5.95707423052535
4486.86908431722	5.95843170836613
4517.96606938491	5.95978795030733
4549.06305445259	5.96109943149998
4580.16003952028	5.96236753171754
4611.25702458796	5.96359407522204
4643.29954962504	5.96481582758588
4675.34207466212	5.96599614829586
4707.3845996992	5.96713633734019
4739.42712473628	5.96823815646027
4772.35080064407	5.96933160619415
4805.27447655186	5.97038704931995
4838.19815245966	5.97140569405369
4871.12182836745	5.97238923121114
4904.83052404093	5.9733610454508
4938.53921971441	5.97429834813464
4972.24791538788	5.97520224400486
5005.95661106136	5.97607434456186
5040.32687103778	5.97693191275262
5074.69713101419	5.97775848227635
5109.0673909906	5.97855504481426
5143.43765096701	5.97932312517588
5178.33087825366	5.98007472873895
5213.22410554031	5.98079878740827
5248.11733282696	5.98149617429297
5283.0105601136	5.98216832223817
5318.291134118	5.98282312248867
5353.5717081224	5.98345368242566
5388.85228212681	5.98406075647365
5424.13285613121	5.98464568325252
5459.68588685239	5.98521345669587
5495.23891757357	5.98576006210536
5530.79194829475	5.9862861404707
5566.34497901593	5.98679293741265
5602.08577914497	5.98728360037567
5637.82657927401	5.98775587884774
5673.56737940306	5.98821030953702
5709.3081795321	5.98864804962921
5745.17985056156	5.98907113440218
5781.05152159102	5.98947830843329
5816.92319262048	5.98987001509889
5852.79486364995	5.99024733023358
5888.75823457135	5.99061159910337
5924.72160549275	5.99096212969511
5960.68497641415	5.99129928308208
5996.64834733555	5.9916240620871
5999.99999994	5.9916532094243
6000	5.9916532094243